TIME(sec),INPUT(F),OUTPUT(msec),Notes
0,160.7,30560.12,Target temperature 165F
16,160.7,31102.47,full pot of water
32,160.93,30018.9,Kp = 7100
48,161.04,29720.05,Ki = 0.008
63,161.04,30219.84,Kd = 0
79,161.26,29093.7,
95,161.26,29565.1,
111,161.38,29223.57,
127,161.49,28867.83,
142,161.6,28498.02,
158,161.71,28113.9,
174,161.83,27715.58,
190,161.94,27303.08,
205,162.05,26876.41,
221,162.16,26435.64,
237,162.27,25980.59,
253,162.39,25511.33,
268,162.5,25027.89,
284,162.61,24530.23,
300,162.72,24018.53,
316,162.72,24305.47,
331,162.95,22966.51,
347,163.06,22412.13,
363,163.18,21843.54,
379,163.29,21260.88,
395,163.4,20663.9,
410,163.4,20865.72,
426,163.63,19441.6,
442,163.74,18802.08,
458,163.85,18148.46,
473,163.96,17480.56,
489,164.08,16798.45,
505,164.19,16102.16,
521,164.3,15391.68,
536,164.3,15479.97,
552,164.52,13942.45,
568,164.52,14002.36,
584,164.75,12436.35,
599,164.86,11654.92,
615,164.97,10859.41,
631,165.09,10049.6,
647,165.2,9225.61,
663,165.31,8387.42,
678,165.31,8348.01,
694,165.43,7495.63,
710,165.54,6629.18,
726,165.65,5748.43,
741,165.65,5666.45,
757,165.88,3958.55,
773,165.88,3848.19,
789,165.99,2924.87,
804,166.1,1987.48,
820,166.21,1035.78,
836,166.21,882.86,
852,166.21,729.94,
868,166.33,-235.95,
883,166.33,-403.08,
899,166.44,-1383.14,
915,166.44,-1564.46,
931,166.55,-2558.73,
946,166.55,-2754.25,
962,166.55,-2949.76,
978,166.66,-3958.09,
994,166.66,-4167.79,
1009,166.66,-4377.48,
1025,166.66,-4587.18,
1041,166.66,-4796.87,
1057,166.66,-5006.57,
1072,166.66,-5216.24,
1088,166.66,-5425.94,
1104,166.55,-4822.78,
1120,166.44,-4205.32,
1136,166.44,-4386.63,
1151,166.44,-4567.95,
1167,166.44,-4749.26,
1183,166.33,-4117.61,
1199,166.21,-3471.77,
1214,166.21,-3624.71,
1230,166.1,-2964.67,
1246,166.1,-3103.42,
1262,165.99,-2429.31,
1277,165.88,-1740.91,
1293,165.88,-1851.27,
1309,165.76,-1148.67,
1325,165.76,-1244.85,
1340,165.65,-528.06,
1356,165.54,202.91,
1372,165.43,947.98,
1388,165.43,894.37,
1404,165.31,1653.73,
1419,165.2,2427.28,
1435,165.09,3215.02,
1451,164.97,4016.94,
1467,164.97,4020.1,
1482,164.86,4836.1,
1498,164.75,5666.4,
1514,164.75,5697.93,
1530,164.64,6542.42,
1545,164.64,6588.15,
1561,164.52,7446.83,
1577,164.52,7506.74,
1593,164.41,8379.61,
1609,164.41,8453.71,
1624,164.3,9340.65,
1640,164.3,9428.94,
1656,164.3,9517.22,
1672,164.19,10418.47,
1687,164.19,10520.94,
1703,164.19,10623.42,
1719,164.08,11538.86,
1735,164.08,11655.53,
1750,164.08,11772.19,
1766,164.08,11888.86,
1782,163.96,12818.48,
1798,163.96,12949.34,
1813,164.08,12267.23,
1829,164.08,12383.89,
1845,163.96,13313.51,
1861,163.96,13444.37,
1877,163.96,13575.22,
1892,163.96,13706.08,
1908,164.08,13023.97,
1924,163.96,13953.6,
1940,163.96,14084.45,
1955,163.96,14215.31,
1971,164.08,13533.2,
1987,164.19,12836.9,
2003,164.19,12939.38,
2018,164.3,12228.89,
2034,164.3,12317.18,
2050,164.3,12405.46,
2066,164.41,11680.89,
2081,164.41,11755,
2097,164.52,11016.13,
2113,164.52,11076.04,
2129,164.52,11135.95,
2145,164.52,11195.86,
2160,164.64,10442.81,
2176,164.75,9675.57,
2192,164.75,9707.1,
2208,164.75,9738.63,
2223,164.86,8957.2,
2239,164.86,8974.54,
2255,164.86,8991.88,
2271,164.97,8196.37,
2286,164.97,8199.53,
2302,164.97,8202.68,
2318,165.09,7392.88,
2334,165.2,6568.88,
2349,165.31,5730.7,
2365,165.31,5691.28,
2381,165.31,5651.87,
2397,165.31,5612.46,
2413,165.43,4760.08,
2428,165.43,4706.48,
2444,165.54,3840.03,
2460,165.54,3772.23,
2476,165.65,2891.49,
2491,165.65,2809.51,
2507,165.65,2727.53,
2523,165.65,2645.55,
2539,165.76,1750.61,
2554,165.76,1654.44,
2570,165.76,1558.27,
2586,165.76,1462.1,
2602,165.76,1365.93,
2617,165.76,1269.77,
2633,165.76,1173.6,
2649,165.76,1077.43,
2665,165.76,981.26,
2681,165.65,1698.05,
2696,165.65,1616.08,
2712,165.65,1534.09,
2728,165.65,1452.12,
2744,165.65,1370.14,
2759,165.65,1288.16,
2775,165.65,1206.18,
2791,165.54,1937.16,
2807,165.54,1869.37,
2822,165.54,1801.58,
2838,165.43,2546.64,
2854,165.31,3306,
2870,165.2,4079.55,
2886,165.2,4054.33,
2901,165.2,4029.1,
2917,165.09,4816.84,
2933,165.09,4805.8,
2949,164.97,5607.73,
2964,164.97,5610.88,
2980,164.86,6426.89,
2996,164.86,6444.23,
3012,164.75,7274.53,
3027,164.75,7306.06,
3043,164.75,7337.59,
3059,164.64,8182.08,
3075,164.64,8227.8,
3090,164.64,8273.53,
3106,164.64,8319.25,
3122,164.52,9177.92,
3138,164.52,9237.83,
3154,164.52,9297.74,
3169,164.41,10170.61,
3185,164.41,10244.71,
3201,164.3,11131.66,
3217,164.3,11219.95,
3232,164.3,11308.23,
3248,164.3,11396.52,
3264,164.3,11484.81,
3280,164.3,11573.09,
3295,164.41,10848.52,
3311,164.41,10922.62,
3327,164.3,11809.57,
3343,164.3,11897.86,
3358,164.3,11986.14,
3374,164.3,12074.43,
3390,164.3,12162.72,
3406,164.41,11438.15,
3422,164.41,11512.25,
3437,164.41,11586.35,
3453,164.41,11660.45,
3469,164.41,11734.55,
3485,164.52,10995.69,
3500,164.52,11055.6,
3516,164.52,11115.5,
3532,164.64,10362.45,
3548,164.75,9595.21,
3563,164.75,9626.74,
3579,164.75,9658.27,
3595,164.75,9689.8,
3611,164.86,8908.37,
3626,164.86,8925.72,
3642,164.97,8130.21,
3658,164.97,8133.36,
3674,164.97,8136.52,
3690,164.97,8139.67,
3705,164.97,8142.82,
3721,164.97,8145.98,
3737,164.97,8149.13,
3753,164.97,8152.29,
3768,165.09,7342.48,
3784,165.09,7331.45,
3800,165.2,6507.45,
3816,165.31,5669.26,
3831,165.31,5629.85,
3847,165.31,5590.44,
3863,165.31,5551.02,
3879,165.31,5511.61,
3894,165.43,4659.24,
3910,165.43,4605.63,
3926,165.54,3739.18,
3942,165.54,3671.39,
3958,165.43,4416.45,
3973,165.54,3550,
3989,165.54,3482.21,
4005,165.54,3414.42,
4021,165.54,3346.63,
4036,165.54,3278.84,
4052,165.54,3211.05,
4068,165.65,2330.3,
4084,165.54,3061.28,
4099,165.54,2993.49,
4115,165.65,2112.74,
4131,165.54,2843.72,
4147,165.54,2775.93,
4163,165.54,2708.14,
4178,165.54,2640.35,
4194,165.43,3385.41,
4210,165.43,3331.81,
4226,165.43,3278.2,
4241,165.43,3224.6,
4257,165.43,3171,
4273,165.31,3930.36,
4289,165.31,3890.94,
4304,165.2,4664.49,
4320,165.31,3826.31,
4336,165.2,4599.85,
4352,165.2,4574.63,
4367,165.09,5362.37,
4383,164.97,6164.29,
4399,164.97,6167.45,
4415,164.97,6170.6,
4431,164.86,6986.61,
4446,164.97,6191.1,
4462,164.86,7007.1,
4478,164.75,7837.4,
4494,164.75,7868.93,
4509,164.86,7087.5,
4525,164.75,7917.81,
4541,164.75,7949.34,
4557,164.64,8793.83,
4572,164.64,8839.55,
4588,164.75,8072.31,
4604,164.75,8103.84,
4620,164.75,8135.37,
4635,164.64,8979.86,
4651,164.64,9025.58,
4667,164.64,9071.3,
4683,164.64,9117.02,
4699,164.52,9975.7,
4714,164.52,10035.61,
4730,164.52,10095.52,
4746,164.52,10155.43,
4762,164.52,10215.34,
4777,164.52,10275.25,
4793,164.64,9522.2,
4809,164.52,10380.88,
4825,164.52,10440.79,
4840,164.64,9687.74,
4856,164.64,9733.46,
4872,164.52,10592.13,
4888,164.52,10652.05,
4903,164.52,10711.95,
4919,164.64,9958.91,
4935,164.75,9191.66,
4951,164.64,10036.16,
4967,164.64,10081.88,
4982,164.64,10127.6,
4998,164.64,10173.32,
5014,164.75,9406.08,
5030,164.75,9437.61,
5045,164.86,8656.18,
5061,164.86,8673.52,
5077,164.86,8690.86,
5093,164.86,8708.2,
5108,164.86,8725.54,
5124,164.86,8742.88,
5140,164.97,7947.37,
5156,164.97,7950.53,
5171,164.97,7953.68,
5187,165.09,7143.88,
5203,165.09,7132.84,
5219,165.09,7121.81,
5235,165.2,6297.81,
5250,165.31,5459.63,
5266,165.2,6233.17,
5282,165.2,6207.95,
5298,165.31,5369.76,
5313,165.31,5330.35,
5329,165.31,5290.94,
5345,165.2,6064.49,
5361,165.2,6039.26,
5376,165.2,6014.04,
5392,165.2,5988.81,
5408,165.31,5150.63,
5424,165.31,5111.21,
5439,165.31,5071.8,
5455,165.43,4219.43,
5471,165.31,4978.79,
5487,165.43,4126.41,
5503,165.31,4885.77,
5518,165.31,4846.35,
5534,165.43,3993.98,
5550,165.43,3940.38,
5566,165.31,4699.74,
5581,165.31,4660.32,
5597,165.31,4620.91,
5613,165.31,4581.49,
5629,165.31,4542.08,
5644,165.31,4502.67,
5660,165.31,4463.25,
5676,165.31,4423.84,
5692,165.31,4384.43,
5708,165.2,5157.98,
5723,165.2,5132.75,
5739,165.2,5107.53,
5755,165.2,5082.3,
5771,165.2,5057.08,
5786,165.09,5844.82,
5802,165.09,5833.78,
5818,165.09,5822.74,
5834,165.09,5811.71,
5849,165.09,5800.68,
5865,165.09,5789.64,
5881,164.97,6591.57,
5897,164.97,6594.72,
5912,164.97,6597.88,
5928,164.97,6601.03,
5944,164.97,6604.18,
5960,164.86,7420.19,
5976,164.86,7437.53,
5991,164.86,7454.87,
6007,164.86,7472.21,
6023,164.86,7489.55,
6039,164.86,7506.9,
6054,164.86,7524.24,
6070,164.75,8354.54,
6086,164.75,8386.07,
6102,164.86,7604.64,
6117,164.75,8434.94,
6133,164.75,8466.47,
6149,164.75,8498,
6165,164.75,8529.53,
6180,164.75,8561.06,
6196,164.64,9405.56,
6212,164.75,8638.31,
6228,164.75,8669.85,
6244,164.75,8701.38,
6259,164.75,8732.91,
6275,164.75,8764.44,
6291,164.86,7983.01,
6307,164.75,8813.31,
6322,164.75,8844.84,
6338,164.75,8876.37,
6354,164.75,8907.9,
6370,164.75,8939.43,
6385,164.75,8970.96,
6401,164.75,9002.49,
6417,164.75,9034.03,
6433,164.75,9065.56,
6448,164.75,9097.09,
6464,164.75,9128.62,
6480,164.75,9160.15,
6496,164.75,9191.68,
6512,164.86,8410.25,
6527,164.86,8427.59,
6543,164.86,8444.93,
6559,164.86,8462.27,
6575,164.97,7666.76,
6590,164.97,7669.92,
6606,164.97,7673.07,
6622,164.97,7676.23,
6638,165.09,6866.42,
6653,165.2,6042.42,
6669,165.09,6830.16,
6685,165.09,6819.13,
6701,165.09,6808.09,
6716,165.09,6797.06,
6732,165.2,5973.06,
6748,165.2,5947.84,
6764,165.2,5922.61,
6780,165.2,5897.39,
6795,165.2,5872.16,
6811,165.2,5846.94,
6827,165.31,5008.75,
6843,165.2,5782.3,
6858,165.31,4944.11,
6874,165.2,5717.66,
6890,165.2,5692.44,
6906,165.2,5667.21,
6921,165.2,5641.99,
6937,165.2,5616.77,
6953,165.2,5591.54,
6969,165.2,5566.32,
6985,165.2,5541.09,
7000,165.2,5515.87,
7016,165.2,5490.65,
7032,165.2,5465.42,
7048,165.2,5440.2,
7063,165.2,5414.97,
7079,165.2,5389.75,
7095,165.2,5364.53,
7111,165.2,5339.3,
7126,165.09,6127.04,
7142,165.09,6116,
7158,165.09,6104.97,
7174,165.09,6093.93,
7189,165.09,6082.9,
7205,165.09,6071.86,
7221,165.09,6060.83,
7237,165.09,6049.79,
7253,165.09,6038.76,
7268,165.09,6027.72,
7284,164.97,6829.65,
7300,164.97,6832.8,
7316,164.97,6835.96,
7331,164.97,6839.11,
7347,164.97,6842.27,
7363,164.97,6845.42,
7379,164.97,6848.57,
7394,164.97,6851.73,
7410,164.97,6854.88,
7426,164.97,6858.04,
7442,164.97,6861.19,
7457,164.97,6864.35,
7473,164.97,6867.5,
7489,164.86,7683.51,
7505,164.86,7700.85,
7521,164.86,7718.19,
7536,164.86,7735.53,
7552,164.86,7752.87,
7568,164.86,7770.21,
7584,164.86,7787.55,
7599,164.86,7804.89,
7615,164.86,7822.24,
7631,164.75,8652.54,
7647,164.75,8684.07,
7662,164.86,7902.64,
7678,164.86,7919.98,
7694,164.86,7937.32,
7710,164.86,7954.66,
7725,164.86,7972,
7741,164.86,7989.35,
7757,164.86,8006.69,
7773,164.86,8024.03,
7789,164.86,8041.37,
7804,164.86,8058.71,
7820,164.86,8076.05,
7836,164.86,8093.4,
7852,164.75,8923.7,
7867,164.86,8142.27,
7883,164.86,8159.61,
7899,164.86,8176.95,
7915,164.86,8194.29,
7930,164.86,8211.63,
7946,164.86,8228.97,
7962,164.86,8246.31,
7978,164.86,8263.65,
7993,164.86,8281,
8009,164.86,8298.34,
8025,164.97,7502.83,
8041,164.86,8318.83,
8057,164.86,8336.17,
8072,164.97,7540.67,
8088,164.97,7543.82,
8104,164.97,7546.97,
8120,164.97,7550.13,
8135,165.09,6740.32,
8151,164.97,7542.25,
8167,164.97,7545.4,
8183,164.97,7548.56,
8198,164.97,7551.71,
8214,164.97,7554.87,
8230,164.97,7558.02,
8246,165.09,6748.21,
8262,165.09,6737.18,
8277,165.09,6726.14,
8293,165.09,6715.11,
8309,165.09,6704.07,
8325,165.09,6693.04,
8340,165.09,6682,
8356,165.09,6670.97,
8372,165.09,6659.93,
8388,165.2,5835.94,
8403,165.2,5810.71,
8419,165.2,5785.49,
8435,165.2,5760.26,
8451,165.09,6548,
8466,165.09,6536.97,
8482,165.2,5712.97,
8498,165.2,5687.75,
8514,165.2,5662.52,
8530,165.09,6450.26,
8545,165.09,6439.23,
8561,165.09,6428.19,
8577,165.09,6417.16,
8593,165.2,5593.16,
8608,165.2,5567.94,
8624,165.09,6355.67,
8640,165.2,5531.68,
8656,165.09,6319.41,
8671,165.2,5495.42,
8687,165.09,6283.16,
8703,165.2,5459.16,
8719,165.2,5433.94,
8734,165.2,5408.71,
8750,165.09,6196.45,
8766,165.09,6185.41,
8782,165.09,6174.38,
8798,165.09,6163.35,
8813,165.09,6152.31,
8829,165.09,6141.28,
8845,165.09,6130.24,
8861,164.97,6932.17,
8876,165.09,6122.36,
8892,165.09,6111.32,
8908,165.09,6100.29,
8924,164.97,6902.21,
8939,164.97,6905.37,
8955,164.97,6908.52,
8971,164.97,6911.68,
8987,164.97,6914.83,
9002,164.97,6917.99,
9018,164.97,6921.14,
9034,164.97,6924.29,
9050,164.86,7740.3,
9066,164.86,7757.64,
9081,164.97,6962.13,
9097,164.97,6965.29,
9113,164.86,7781.29,
9129,164.86,7798.63,
9144,164.86,7815.97,
9160,164.86,7833.31,
9176,164.86,7850.66,
9192,164.86,7868,
9207,164.86,7885.34,
9223,164.86,7902.68,
9239,164.86,7920.02,
9255,164.86,7937.36,
9270,164.86,7954.7,
9286,164.86,7972.05,
9302,164.86,7989.39,
9318,164.86,8006.73,
9334,164.86,8024.07,
9349,164.86,8041.41,
9365,164.86,8058.75,
9381,164.86,8076.09,
9397,164.86,8093.43,
9412,164.86,8110.78,
9428,164.86,8128.12,
9444,164.86,8145.46,
9460,164.86,8162.8,
9475,164.86,8180.14,
9491,164.86,8197.48,
9507,164.86,8214.82,
9523,164.86,8232.17,
9538,164.86,8249.51,
9554,164.86,8266.85,
9570,164.97,7471.34,
9586,164.86,8287.34,
9602,164.97,7491.84,
9617,164.97,7494.99,
9633,164.97,7498.14,
9649,164.97,7501.3,
9665,164.86,8317.3,
9680,164.86,8334.64,
9696,164.97,7539.14,
9712,164.97,7542.29,
9728,164.97,7545.44,
9743,164.97,7548.6,
9759,164.97,7551.75,
9775,164.97,7554.91,
9791,164.97,7558.06,
9807,165.09,6748.25,
9822,165.09,6737.22,
9838,165.09,6726.18,
9854,165.09,6715.15,
9870,165.09,6704.11,
9885,165.09,6693.08,
9901,165.09,6682.05,
9917,165.09,6671.01,
9933,165.09,6659.97,
9948,165.09,6648.94,
9964,164.97,7450.87,
9980,165.09,6641.06,
9996,165.09,6630.02,
10011,165.09,6618.99,
10027,165.09,6607.95,
10043,165.09,6596.92,
10059,165.2,5772.92,
10075,165.2,5747.7,
10090,165.09,6535.44,
10106,165.09,6524.4,
10122,165.09,6513.37,
10138,165.09,6502.33,
10153,165.09,6491.3,
10169,165.09,6480.26,
10185,165.09,6469.23,
10201,165.09,6458.19,
10216,165.09,6447.16,
10232,165.09,6436.12,
10248,165.09,6425.09,
10264,165.09,6414.05,
10279,165.09,6403.02,
10295,165.09,6391.98,
10311,165.09,6380.95,
10327,165.09,6369.91,
10343,165.09,6358.88,
10358,165.09,6347.84,
10374,165.09,6336.81,
10390,165.09,6325.77,
10406,165.09,6314.74,
10421,164.97,7116.66,
10437,164.97,7119.82,
10453,165.09,6310.01,
10469,164.97,7111.93,
10484,164.97,7115.09,
10500,164.97,7118.24,
10516,164.97,7121.4,
10532,164.97,7124.55,
10547,164.97,7127.71,
10563,164.97,7130.86,
10579,164.97,7134.02,
10595,164.86,7950.02,
10611,164.86,7967.36,
10626,164.97,7171.85,
10642,164.86,7987.86,
10658,164.86,8005.2,
10674,164.86,8022.54,
10689,164.86,8039.88,
10705,164.86,8057.22,
10721,164.86,8074.56,
10737,164.86,8091.91,
10752,164.86,8109.25,
10768,164.86,8126.59,
10784,164.86,8143.93,
10800,164.86,8161.27,
10815,164.86,8178.61,
10831,164.97,7383.1,
10847,164.86,8199.11,
10863,164.86,8216.45,
10879,164.86,8233.79,
10894,164.86,8251.13,
10910,164.86,8268.47,
10926,164.86,8285.82,
10942,164.86,8303.16,
10957,164.86,8320.5,
10973,164.86,8337.84,
10989,164.86,8355.18,
11005,164.86,8372.52,
11020,164.86,8389.86,
11036,164.86,8407.2,
11052,164.86,8424.55,
11068,164.86,8441.89,
11084,164.86,8459.23,
11099,164.97,7663.72,
11115,164.97,7666.87,
11131,164.97,7670.03,
11147,164.97,7673.18,
11162,164.97,7676.34,
11178,164.97,7679.49,
11194,165.09,6869.69,
11210,164.97,7671.61,
11225,165.09,6861.81,
11241,165.09,6850.77,
11257,165.2,6026.78,
11273,165.09,6814.51,
11288,165.2,5990.52,
11304,165.09,6778.25,
11320,165.09,6767.22,
11336,165.09,6756.18,
11352,165.2,5932.19,
11367,165.09,6719.92,
11383,165.09,6708.89,
11399,165.09,6697.85,
11415,165.2,5873.86,
11430,165.2,5848.63,
11446,165.2,5823.41,
11462,165.2,5798.19,
11478,165.09,6585.92,
11493,165.09,6574.89,
11509,165.09,6563.85,
11525,165.09,6552.82,
11541,165.09,6541.78,
11556,165.09,6530.75,
11572,165.09,6519.71,
11588,165.09,6508.68,
11604,165.2,5684.68,
11620,165.09,6472.42,
11635,165.09,6461.38,
11651,165.09,6450.35,
11667,165.09,6439.32,
11683,165.09,6428.28,
11698,165.09,6417.25,
11714,165.2,5593.25,
11730,165.2,5568.03,
11746,165.09,6355.76,
11761,164.97,7157.69,
11777,164.97,7160.84,
11793,164.97,7164,
11809,164.97,7167.15,
11824,164.97,7170.3,
11840,164.97,7173.46,
11856,164.97,7176.61,
11872,164.97,7179.77,
11888,164.97,7182.92,
11903,164.97,7186.08,
11919,164.86,8002.08,
11935,164.86,8019.42,
11951,164.86,8036.76,
11966,164.97,7241.25,
11982,164.86,8057.26,
11998,164.86,8074.6,
12014,164.97,7279.09,
12029,164.86,8095.1,
12045,164.86,8112.44,
12061,164.86,8129.78,
12077,164.86,8147.12,
12092,164.97,7351.61,
12108,164.86,8167.62,
12124,164.86,8184.96,
12140,164.86,8202.3,
12156,164.86,8219.64,
12171,164.86,8236.98,
12187,164.86,8254.32,
12203,164.86,8271.67,
12219,164.86,8289.01,
12234,164.86,8306.35,
12250,164.86,8323.69,
12266,164.86,8341.03,
12282,164.86,8358.37,
12297,164.86,8375.71,
12313,164.86,8393.05,
12329,164.86,8410.4,
12345,164.86,8427.74,
12361,164.86,8445.08,
12376,164.86,8462.42,
12392,164.86,8479.76,
12408,164.97,7684.25,
12424,164.97,7687.41,
12439,164.97,7690.56,
12455,164.97,7693.72,
12471,164.97,7696.87,
12487,164.97,7700.02,
12502,164.97,7703.18,
12518,164.97,7706.33,
12534,165.09,6896.53,
12550,164.97,7698.45,
12565,164.97,7701.61,
12581,165.09,6891.8,
12597,165.09,6880.77,
12613,165.09,6869.73,
12629,165.09,6858.7,
12644,165.09,6847.66,
12660,165.09,6836.63,
12676,165.09,6825.59,
12692,165.2,6001.59,
12707,165.2,5976.37,
12723,165.2,5951.15,
12739,165.09,6738.88,
12755,165.2,5914.89,
12770,165.2,5889.66,
12786,165.09,6677.4,
12802,165.2,5853.4,
12818,165.2,5828.18,
12833,165.2,5802.96,
12849,165.2,5777.73,
12865,165.2,5752.51,
12881,165.2,5727.28,
12897,165.2,5702.06,
12912,165.2,5676.84,
12928,165.2,5651.61,
12944,165.2,5626.39,
12960,165.2,5601.16,
12975,165.2,5575.94,
12991,165.2,5550.71,
13007,165.2,5525.49,
13023,165.09,6313.23,
13038,165.09,6302.19,
13054,165.2,5478.2,
13070,165.2,5452.97,
13086,165.09,6240.71,
13101,165.09,6229.67,
13117,165.09,6218.64,
13133,165.09,6207.61,
13149,165.09,6196.57,
13165,165.09,6185.54,
13180,164.97,6987.46,
13196,164.97,6990.62,
13212,164.97,6993.77,
13228,164.97,6996.92,
13243,164.97,7000.08,
13259,164.97,7003.23,
13275,164.97,7006.39,
13291,164.97,7009.54,
13306,164.97,7012.7,
13322,164.86,7828.7,
13338,164.97,7033.19,
13354,164.86,7849.19,
13369,164.86,7866.54,
13385,164.86,7883.88,
13401,164.86,7901.22,
13417,164.86,7918.56,
13433,164.86,7935.9,
13448,164.97,7140.39,
13464,164.86,7956.4,
13480,164.86,7973.74,
13496,164.86,7991.08,
13511,164.86,8008.42,
13527,164.86,8025.76,
13543,164.86,8043.1,
13559,164.86,8060.45,
13574,164.75,8890.75,
13590,164.86,8109.32,
13606,164.86,8126.66,
13622,164.86,8144,
13638,164.86,8161.34,
13653,164.86,8178.68,
13669,164.86,8196.03,
13685,164.86,8213.37,
13701,164.97,7417.86,
13716,164.86,8233.86,
13732,164.86,8251.2,
13748,164.86,8268.55,
13764,164.86,8285.89,
13779,164.86,8303.23,
13795,164.86,8320.57,
13811,164.86,8337.91,
13827,164.97,7542.4,
13842,164.97,7545.56,
13858,164.86,8361.56,
13874,164.86,8378.9,
13890,164.97,7583.39,
13906,164.86,8399.4,
13921,164.97,7603.89,
13937,164.97,7607.04,
13953,164.97,7610.2,
13969,164.97,7613.35,
13984,164.97,7616.51,
14000,165.09,6806.7,
14016,164.97,7608.62,
14032,164.97,7611.78,
14047,165.09,6801.97,
14063,165.09,6790.94,
14079,165.09,6779.9,
14095,165.09,6768.87,
14110,165.09,6757.83,
14126,165.09,6746.8,
14142,165.09,6735.76,
14158,165.09,6724.73,
14174,165.09,6713.69,
14189,165.2,5889.7,
14205,165.2,5864.47,
14221,165.09,6652.21,
14237,165.2,5828.21,
14252,165.09,6615.95,
14268,165.09,6604.92,
14284,165.09,6593.88,
14300,165.09,6582.85,
14315,165.09,6571.81,
14331,165.09,6560.78,
14347,165.09,6549.74,
14363,165.09,6538.71,
14378,165.09,6527.67,
14394,165.09,6516.64,
14410,165.09,6505.6,
14426,165.09,6494.57,
14442,165.09,6483.53,
14457,165.09,6472.5,
14473,165.09,6461.46,
14489,165.09,6450.43,
14505,165.2,5626.43,
14520,165.09,6414.17,
14536,165.09,6403.13,
14552,165.09,6392.1,
14568,165.09,6381.06,
14583,165.09,6370.03,
14599,165.09,6358.99,
14615,165.09,6347.96,
14631,165.09,6336.92,
14646,165.09,6325.89,
14662,165.09,6314.85,
14678,164.97,7116.78,
14694,164.97,7119.93,
14710,165.09,6310.13,
14725,164.97,7112.05,
14741,164.97,7115.21,
14757,164.97,7118.36,
14773,164.97,7121.52,
14788,164.97,7124.67,
14804,164.97,7127.82,
14820,164.97,7130.98,
14836,164.97,7134.13,
