TIME(min),TIME(sec),INPUT(F),OUTPUT(sec),PROPORTIONAL(sec),INTEGRATOR(sec),DERIVATIVE(sec),Notes,Average output
0,0,113.45,5727.64,49.65,3.7,5674.29,Target temperature 130F,15.54258373
0.16,16,113.67,48.39,48.98,3.7,-4.28,full pot of water,
0.32,32,113.79,50.2,48.64,3.7,-2.14,Kp = 3000,
0.48,48,114.01,47.38,47.96,3.7,-4.28,Ki = 0.0025,
1.03,63,114.24,46.71,47.29,3.7,-4.28,Kd = 300000000,
1.19,79,114.46,46.03,46.61,3.7,-4.28,Period = 15000 ms,
1.35,95,114.57,47.83,46.28,3.7,-2.14,Initial Integrator error = 3700 ms,
1.51,111,114.8,45.02,45.6,3.7,-4.28,Integrator range = 1 F,
2.07,127,115.02,44.34,44.92,3.7,-4.28,,
2.22,142,115.14,46.15,44.59,3.7,-2.14,,
2.38,158,115.36,43.33,43.91,3.7,-4.28,,
2.54,174,115.47,45.13,43.58,3.7,-2.14,,
3.1,190,115.7,42.32,42.9,3.7,-4.28,,
3.25,205,115.92,41.64,42.23,3.7,-4.28,,
3.41,221,116.15,40.97,41.55,3.7,-4.28,,
3.57,237,116.37,40.29,40.88,3.7,-4.28,,
4.13,253,116.49,42.1,40.54,3.7,-2.14,,
4.28,268,116.6,41.76,40.2,3.7,-2.14,,
4.44,284,116.82,38.94,39.53,3.7,-4.28,,
5,300,117.05,38.27,38.85,3.7,-4.28,,
5.16,316,117.16,40.07,38.51,3.7,-2.14,,
5.32,332,117.39,37.26,37.84,3.7,-4.28,,
5.47,347,117.61,36.58,37.16,3.7,-4.28,,
6.03,363,117.72,38.38,36.83,3.7,-2.14,,
6.19,379,117.84,38.05,36.49,3.7,-2.14,,
6.35,395,118.06,35.23,35.81,3.7,-4.28,,
6.5,410,118.17,37.03,35.48,3.7,-2.14,,
7.06,426,118.4,34.22,34.8,3.7,-4.28,,
7.22,442,118.74,31.07,33.79,3.7,-6.42,,
7.38,458,118.85,35.01,33.45,3.7,-2.14,,
7.53,473,118.96,34.67,33.11,3.7,-2.14,,
8.09,489,119.19,31.86,32.44,3.7,-4.28,,
8.25,505,119.41,31.18,31.76,3.7,-4.28,,
8.41,521,119.64,30.51,31.09,3.7,-4.28,,
8.56,536,119.64,34.79,31.09,3.7,0,,
9.12,552,119.86,29.83,30.41,3.7,-4.28,,
9.28,568,120.09,29.16,29.74,3.7,-4.28,,
9.44,584,120.2,30.96,29.4,3.7,-2.14,,
10,600,120.42,28.14,28.73,3.7,-4.28,,
10.15,615,120.54,29.95,28.39,3.7,-2.14,,
10.31,631,120.76,27.13,27.71,3.7,-4.28,,
10.47,647,120.99,26.46,27.04,3.7,-4.28,,
11.03,663,121.21,25.78,26.36,3.7,-4.28,,
11.18,678,121.32,27.58,26.03,3.7,-2.14,,
11.34,694,121.55,24.77,25.35,3.7,-4.28,,
11.5,710,121.66,26.57,25.01,3.7,-2.14,,
12.06,726,121.89,23.76,24.34,3.7,-4.28,,
12.21,741,122.11,23.08,23.66,3.7,-4.28,,
12.37,757,122.22,24.88,23.33,3.7,-2.14,,
12.53,773,122.45,22.07,22.65,3.7,-4.28,,
13.09,789,122.56,23.87,22.31,3.7,-2.14,,
13.25,805,122.79,21.06,21.64,3.7,-4.28,,
13.4,820,123.01,20.38,20.96,3.7,-4.28,,
13.56,836,123.24,19.71,20.29,3.7,-4.28,,
14.12,852,123.35,21.51,19.95,3.7,-2.14,,
14.28,868,123.57,18.69,19.28,3.7,-4.28,,
14.43,883,123.57,22.98,19.28,3.7,0,,
14.59,899,123.8,18.02,18.6,3.7,-4.28,,
15.15,915,124.02,17.34,17.93,3.7,-4.28,,
15.31,931,124.25,16.67,17.25,3.7,-4.28,,
15.46,946,124.47,15.99,16.58,3.7,-4.28,,
16.02,962,124.47,20.28,16.58,3.7,0,,
16.18,978,124.7,15.32,15.9,3.7,-4.28,,
16.34,994,124.92,14.64,15.23,3.7,-4.28,,
16.5,1010,125.04,16.45,14.89,3.7,-2.14,,
17.05,1025,125.26,13.63,14.21,3.7,-4.28,,
17.21,1041,125.37,15.43,13.88,3.7,-2.14,,
17.37,1057,125.6,12.62,13.2,3.7,-4.28,,
17.53,1073,125.71,14.42,12.86,3.7,-2.14,,
18.08,1088,125.94,11.61,12.19,3.7,-4.28,,
18.24,1104,126.16,10.93,11.51,3.7,-4.28,,
18.4,1120,126.27,12.73,11.18,3.7,-2.14,,
18.56,1136,126.39,12.4,10.84,3.7,-2.14,,
19.11,1151,126.61,9.58,10.16,3.7,-4.28,,
19.27,1167,126.72,11.38,9.83,3.7,-2.14,,
19.43,1183,126.84,11.05,9.49,3.7,-2.14,,
19.59,1199,127.06,8.23,8.81,3.7,-4.28,,
20.15,1215,127.17,10.03,8.48,3.7,-2.14,,
20.3,1230,127.4,7.22,7.8,3.7,-4.28,,
20.46,1246,127.51,9.02,7.46,3.7,-2.14,,
21.02,1262,127.74,6.21,6.79,3.7,-4.28,,
21.18,1278,127.85,8.01,6.45,3.7,-2.14,,
21.33,1293,127.96,7.67,6.11,3.7,-2.14,,
21.49,1309,128.08,7.33,5.78,3.7,-2.14,,
22.05,1325,128.3,4.52,5.1,3.7,-4.28,,
22.21,1341,128.41,6.32,4.76,3.7,-2.14,,
22.36,1356,128.52,5.98,4.43,3.7,-2.14,,
22.52,1372,128.64,5.65,4.09,3.7,-2.14,,
23.08,1388,128.75,5.31,3.75,3.7,-2.14,,
23.24,1404,128.98,2.49,3.07,3.7,-4.28,,
23.39,1419,128.98,6.77,3.07,3.7,0,,
23.55,1435,129.09,4.33,2.74,3.74,-2.14,,
24.11,1451,129.2,4.03,2.4,3.77,-2.14,,
24.27,1467,129.31,3.72,2.06,3.79,-2.14,,
24.43,1483,129.42,3.4,1.73,3.82,-2.14,,
24.58,1498,129.42,5.56,1.73,3.84,0,,
25.14,1514,129.65,0.62,1.05,3.85,-4.28,,
25.3,1530,129.65,4.92,1.05,3.87,0,,
25.46,1546,129.76,2.45,0.71,3.88,-2.14,,
26.01,1561,129.76,4.6,0.71,3.89,0,,
26.17,1577,129.88,2.13,0.37,3.89,-2.14,,
26.33,1593,129.99,1.79,0.04,3.89,-2.14,,
26.49,1609,129.99,3.93,0.04,3.89,0,,
27.04,1624,130.1,1.45,-0.3,3.89,-2.14,,
27.2,1640,130.1,3.58,-0.3,3.88,0,,
27.36,1656,130.21,1.1,-0.64,3.88,-2.14,,
27.52,1672,130.33,0.75,-0.97,3.86,-2.14,,
28.08,1688,130.33,2.88,-0.97,3.85,0,,
28.23,1703,130.44,0.38,-1.31,3.83,-2.14,,
28.39,1719,130.44,2.5,-1.31,3.82,0,,
28.55,1735,130.55,0,-1.65,3.79,-2.14,,
29.11,1751,130.55,2.12,-1.65,3.77,0,,
29.26,1766,130.55,2.1,-1.65,3.75,0,,
29.42,1782,130.66,-0.4,-1.99,3.72,-2.14,,
29.58,1798,130.66,1.71,-1.99,3.7,0,,
30.14,1814,130.66,1.68,-1.99,3.67,0,,
30.29,1829,130.77,-0.82,-2.32,3.64,-2.14,,
30.45,1845,130.77,1.29,-2.32,3.61,0,,
31.01,1861,130.77,1.26,-2.32,3.58,0,,
31.17,1877,130.89,-1.26,-2.66,3.55,-2.14,,
31.32,1892,130.89,0.85,-2.66,3.51,0,,
31.48,1908,130.89,0.81,-2.66,3.48,0,,
32.04,1924,131,-1.7,-3,3.44,-2.14,,
32.2,1940,131,0.4,-3,3.4,0,,
32.36,1956,131,0.36,-3,3.36,0,,
32.51,1971,131,0.32,-3,3.32,0,,
33.07,1987,131,0.28,-3,3.28,0,,
33.23,2003,131,0.24,-3,3.24,0,,
33.39,2019,131.11,-2.24,-3.34,3.24,-2.14,,
33.54,2034,131.11,-0.1,-3.34,3.24,0,,
34.1,2050,131.11,-0.1,-3.34,3.24,0,,
34.26,2066,131.11,-0.1,-3.34,3.24,0,,
34.42,2082,131.11,-0.1,-3.34,3.24,0,,
34.57,2097,131.11,-0.1,-3.34,3.24,0,,
35.13,2113,131.23,-2.58,-3.68,3.24,-2.14,,
35.29,2129,131.11,2.04,-3.34,3.24,2.14,,
35.45,2145,131.11,-0.1,-3.34,3.24,0,,
36.01,2161,131.11,-0.1,-3.34,3.24,0,,
36.16,2176,131.11,-0.1,-3.34,3.24,0,,
36.32,2192,131.11,-0.1,-3.34,3.24,0,,
36.48,2208,131,2.34,-3,3.2,2.14,,
37.04,2224,131,0.16,-3,3.16,0,,
37.19,2239,130.89,2.6,-2.66,3.13,2.14,,
37.35,2255,130.89,0.43,-2.66,3.09,0,,
37.51,2271,130.89,0.39,-2.66,3.06,0,,
38.07,2287,130.89,0.36,-2.66,3.02,0,,
38.22,2302,130.77,2.81,-2.32,2.99,2.14,,
38.38,2318,130.77,0.63,-2.32,2.96,0,,
38.54,2334,130.77,0.6,-2.32,2.93,0,,
39.1,2350,130.66,3.06,-1.99,2.9,2.14,,
39.26,2366,130.66,0.89,-1.99,2.88,0,,
39.41,2381,130.66,0.86,-1.99,2.85,0,,
39.57,2397,130.66,0.84,-1.99,2.82,0,,
40.13,2413,130.66,0.81,-1.99,2.8,0,,
40.29,2429,130.66,0.78,-1.99,2.77,0,,
40.44,2444,130.55,3.24,-1.65,2.75,2.14,,
41,2460,130.55,1.08,-1.65,2.73,0,,
41.16,2476,130.55,1.06,-1.65,2.71,0,,
41.32,2492,130.55,1.04,-1.65,2.69,0,,
41.47,2507,130.44,3.5,-1.31,2.67,2.14,,
42.03,2523,130.44,1.34,-1.31,2.65,0,,
42.19,2539,130.44,1.32,-1.31,2.63,0,,
42.35,2555,130.44,1.3,-1.31,2.62,0,,
42.5,2570,130.33,3.77,-0.97,2.6,2.14,,
43.06,2586,130.44,-0.87,-1.31,2.59,-2.14,,
43.22,2602,130.33,3.74,-0.97,2.57,2.14,,
43.38,2618,130.33,1.59,-0.97,2.56,0,,
43.54,2634,130.33,1.57,-0.97,2.55,0,,
44.09,2649,130.33,1.56,-0.97,2.54,0,,
44.25,2665,130.33,1.55,-0.97,2.52,0,,
44.41,2681,130.21,4.02,-0.64,2.51,2.14,,
44.57,2697,130.21,1.87,-0.64,2.51,0,,
45.12,2712,130.21,1.86,-0.64,2.5,0,,
45.28,2728,130.21,1.85,-0.64,2.49,0,,
45.44,2744,130.1,4.33,-0.3,2.48,2.14,,
46,2760,130.1,2.18,-0.3,2.48,0,,
46.15,2775,130.1,2.18,-0.3,2.48,0,,
46.31,2791,130.1,2.17,-0.3,2.47,0,,
46.47,2807,130.1,2.17,-0.3,2.47,0,,
47.03,2823,130.1,2.17,-0.3,2.47,0,,
47.19,2839,129.99,4.64,0.04,2.47,2.14,,
47.34,2854,129.99,2.5,0.04,2.47,0,,
47.5,2870,129.99,2.5,0.04,2.47,0,,
48.06,2886,129.99,2.5,0.04,2.47,0,,
48.22,2902,129.99,2.51,0.04,2.47,0,,
48.37,2917,129.88,4.99,0.37,2.47,2.14,,
48.53,2933,129.88,2.85,0.37,2.48,0,,
49.09,2949,129.88,2.86,0.37,2.48,0,,
49.25,2965,129.88,2.86,0.37,2.49,0,,
49.4,2980,129.88,2.87,0.37,2.49,0,,
49.56,2996,129.76,5.35,0.71,2.5,2.14,,
50.12,3012,129.76,3.22,0.71,2.51,0,,
50.28,3028,129.76,3.23,0.71,2.52,0,,
50.43,3043,129.76,3.24,0.71,2.53,0,,
50.59,3059,129.76,3.25,0.71,2.54,0,,
51.15,3075,129.76,3.26,0.71,2.55,0,,
51.31,3091,129.65,5.75,1.05,2.56,2.14,,
51.47,3107,129.65,3.63,1.05,2.58,0,,
52.02,3122,129.65,3.64,1.05,2.59,0,,
52.18,3138,129.76,1.17,0.71,2.6,-2.14,,
52.34,3154,129.65,5.8,1.05,2.61,2.14,,
52.5,3170,129.65,3.68,1.05,2.63,0,,
53.05,3185,129.65,3.69,1.05,2.64,0,,
53.21,3201,129.65,3.7,1.05,2.65,0,,
53.37,3217,129.65,3.72,1.05,2.67,0,,
53.53,3233,129.65,3.73,1.05,2.68,0,,
54.08,3248,129.65,3.75,1.05,2.7,0,,
54.24,3264,129.65,3.76,1.05,2.71,0,,
54.4,3280,129.54,6.26,1.39,2.73,2.14,,
54.56,3296,129.54,4.13,1.39,2.75,0,,
55.12,3312,129.65,1.67,1.05,2.76,-2.14,,
55.27,3327,129.54,6.31,1.39,2.78,2.14,,
55.43,3343,129.54,4.18,1.39,2.8,0,,
55.59,3359,129.54,4.2,1.39,2.81,0,,
56.15,3375,129.65,1.74,1.05,2.83,-2.14,,
56.3,3390,129.65,3.89,1.05,2.84,0,,
56.46,3406,129.65,3.91,1.05,2.86,0,,
57.02,3422,129.54,6.4,1.39,2.87,2.14,,
57.18,3438,129.54,4.28,1.39,2.89,0,,
57.33,3453,129.54,4.3,1.39,2.91,0,,
57.49,3469,129.65,1.83,1.05,2.92,-2.14,,
58.05,3485,129.65,3.99,1.05,2.94,0,,
58.21,3501,129.65,4,1.05,2.95,0,,
58.37,3517,129.65,4.02,1.05,2.97,0,,
58.52,3532,129.54,6.51,1.39,2.98,2.14,,
59.08,3548,129.54,4.39,1.39,3,0,,
59.24,3564,129.65,1.93,1.05,3.02,-2.14,,
59.4,3580,129.65,4.08,1.05,3.03,0,,
59.55,3595,129.65,4.09,1.05,3.04,0,,
60.11,3611,129.65,4.11,1.05,3.06,0,,
60.27,3627,129.65,4.12,1.05,3.07,0,,
60.43,3643,129.65,4.14,1.05,3.09,0,,
60.58,3658,129.65,4.15,1.05,3.1,0,,
61.14,3674,129.65,4.16,1.05,3.11,0,,
61.3,3690,129.65,4.18,1.05,3.13,0,,
61.46,3706,129.65,4.19,1.05,3.14,0,,
62.01,3721,129.65,4.2,1.05,3.15,0,,
62.17,3737,129.65,4.22,1.05,3.17,0,,
62.33,3753,129.65,4.23,1.05,3.18,0,,
62.49,3769,129.65,4.25,1.05,3.2,0,,
63.05,3785,129.65,4.26,1.05,3.21,0,,
63.2,3800,129.65,4.27,1.05,3.22,0,,
63.36,3816,129.65,4.29,1.05,3.24,0,,
63.52,3832,129.65,4.3,1.05,3.25,0,,
64.08,3848,129.65,4.31,1.05,3.26,0,,
64.23,3863,129.76,1.85,0.71,3.27,-2.14,,
64.39,3879,129.76,4,0.71,3.28,0,,
64.55,3895,129.76,4.01,0.71,3.29,0,,
65.11,3911,129.76,4.01,0.71,3.3,0,,
65.26,3926,129.65,6.51,1.05,3.32,2.14,,
65.42,3942,129.65,4.38,1.05,3.33,0,,
65.58,3958,129.76,1.91,0.71,3.34,-2.14,,
66.14,3974,129.76,4.06,0.71,3.35,0,,
66.3,3990,129.76,4.07,0.71,3.36,0,,
66.45,4005,129.76,4.08,0.71,3.37,0,,
67.01,4021,129.76,4.09,0.71,3.38,0,,
67.17,4037,129.76,4.1,0.71,3.39,0,,
67.33,4053,129.76,4.11,0.71,3.4,0,,
67.48,4068,129.76,4.12,0.71,3.4,0,,
68.04,4084,129.76,4.13,0.71,3.41,0,,
68.2,4100,129.76,4.14,0.71,3.42,0,,
68.36,4116,129.76,4.14,0.71,3.43,0,,
68.51,4131,129.76,4.15,0.71,3.44,0,,
69.07,4147,129.76,4.16,0.71,3.45,0,,
69.23,4163,129.76,4.17,0.71,3.46,0,,
69.39,4179,129.76,4.18,0.71,3.47,0,,
69.54,4194,129.88,1.71,0.37,3.47,-2.14,,
70.1,4210,129.88,3.85,0.37,3.48,0,,
70.26,4226,129.76,6.34,0.71,3.49,2.14,,
70.42,4242,129.88,1.73,0.37,3.49,-2.14,,
70.58,4258,129.88,3.87,0.37,3.5,0,,
71.13,4273,129.88,3.88,0.37,3.5,0,,
71.29,4289,129.88,3.88,0.37,3.51,0,,
71.45,4305,129.88,3.89,0.37,3.51,0,,
72.01,4321,129.88,3.89,0.37,3.52,0,,
72.16,4336,129.88,3.9,0.37,3.52,0,,
72.32,4352,129.88,3.9,0.37,3.53,0,,
72.48,4368,129.88,3.91,0.37,3.53,0,,
73.04,4384,129.88,3.91,0.37,3.54,0,,
73.19,4399,129.88,3.92,0.37,3.54,0,,
73.35,4415,129.88,3.92,0.37,3.55,0,,
73.51,4431,129.88,3.93,0.37,3.55,0,,
74.07,4447,129.88,3.93,0.37,3.56,0,,
74.23,4463,129.88,3.94,0.37,3.56,0,,
74.38,4478,129.88,3.94,0.37,3.57,0,,
74.54,4494,129.88,3.95,0.37,3.57,0,,
75.1,4510,129.99,1.47,0.04,3.57,-2.14,,
75.26,4526,129.88,6.09,0.37,3.58,2.14,,
75.41,4541,129.99,1.48,0.04,3.58,-2.14,,
75.57,4557,129.88,6.1,0.37,3.58,2.14,,
76.13,4573,129.99,1.48,0.04,3.58,-2.14,,
76.29,4589,129.99,3.62,0.04,3.58,0,,
76.44,4604,129.99,3.62,0.04,3.59,0,,
77,4620,129.99,3.62,0.04,3.59,0,,
77.16,4636,129.99,3.62,0.04,3.59,0,,
77.32,4652,129.99,3.62,0.04,3.59,0,,
77.47,4667,129.99,3.62,0.04,3.59,0,,
78.03,4683,129.99,3.63,0.04,3.59,0,,
78.19,4699,129.99,3.63,0.04,3.59,0,,
78.35,4715,129.99,3.63,0.04,3.59,0,,
78.51,4731,129.99,3.63,0.04,3.59,0,,
79.06,4746,129.99,3.63,0.04,3.59,0,,
79.22,4762,129.99,3.63,0.04,3.59,0,,
79.38,4778,129.99,3.63,0.04,3.59,0,,
79.54,4794,129.99,3.63,0.04,3.59,0,,
80.09,4809,129.99,3.63,0.04,3.59,0,,
80.25,4825,129.99,3.63,0.04,3.59,0,,
80.41,4841,129.99,3.63,0.04,3.59,0,,
80.57,4857,129.99,3.63,0.04,3.59,0,,
81.12,4872,129.99,3.63,0.04,3.59,0,,
81.28,4888,129.99,3.63,0.04,3.59,0,,
81.44,4904,129.99,3.63,0.04,3.59,0,,
82,4920,129.99,3.63,0.04,3.6,0,,
82.16,4936,129.99,3.63,0.04,3.6,0,,
82.31,4951,129.99,3.63,0.04,3.6,0,,
82.47,4967,129.99,3.63,0.04,3.6,0,,
83.03,4983,129.99,3.63,0.04,3.6,0,,
83.19,4999,129.99,3.64,0.04,3.6,0,,
83.34,5014,129.99,3.64,0.04,3.6,0,,
83.5,5030,129.99,3.64,0.04,3.6,0,,
84.06,5046,129.99,3.64,0.04,3.6,0,,
84.22,5062,129.99,3.64,0.04,3.6,0,,
84.37,5077,129.99,3.64,0.04,3.6,0,,
84.53,5093,129.99,3.64,0.04,3.6,0,,
85.09,5109,129.99,3.64,0.04,3.6,0,,
85.25,5125,129.99,3.64,0.04,3.6,0,,
85.41,5141,129.99,3.64,0.04,3.6,0,,
85.56,5156,129.99,3.64,0.04,3.6,0,,
86.12,5172,129.99,3.64,0.04,3.6,0,,
86.28,5188,129.99,3.64,0.04,3.6,0,,
86.44,5204,129.99,3.64,0.04,3.6,0,,
86.59,5219,130.1,1.16,-0.3,3.6,-2.14,,
87.15,5235,130.1,3.3,-0.3,3.6,0,,
87.31,5251,130.1,3.29,-0.3,3.59,0,,
87.47,5267,130.1,3.29,-0.3,3.59,0,,
88.02,5282,130.1,3.28,-0.3,3.58,0,,
88.18,5298,130.1,3.28,-0.3,3.58,0,,
88.34,5314,130.1,3.28,-0.3,3.58,0,,
88.5,5330,130.1,3.27,-0.3,3.57,0,,
89.05,5345,130.1,3.27,-0.3,3.57,0,,
89.21,5361,130.1,3.26,-0.3,3.56,0,,
89.37,5377,130.1,3.26,-0.3,3.56,0,,
89.53,5393,130.1,3.26,-0.3,3.56,0,,
90.09,5409,130.1,3.25,-0.3,3.55,0,,
90.24,5424,129.99,5.73,0.04,3.55,2.14,,
90.4,5440,130.1,1.11,-0.3,3.55,-2.14,,
90.56,5456,130.1,3.25,-0.3,3.55,0,,
91.12,5472,129.99,5.72,0.04,3.55,2.14,,
91.27,5487,129.99,3.58,0.04,3.55,0,,
91.43,5503,129.99,3.58,0.04,3.55,0,,
91.59,5519,129.99,3.58,0.04,3.55,0,,
92.15,5535,129.99,3.59,0.04,3.55,0,,
92.3,5550,129.99,3.59,0.04,3.55,0,,
92.46,5566,129.99,3.59,0.04,3.55,0,,
93.02,5582,129.99,3.59,0.04,3.55,0,,
93.18,5598,129.99,3.59,0.04,3.55,0,,
93.34,5614,130.1,1.1,-0.3,3.55,-2.14,,
93.49,5629,130.1,3.24,-0.3,3.54,0,,
94.05,5645,130.1,3.24,-0.3,3.54,0,,
94.21,5661,130.1,3.23,-0.3,3.53,0,,
94.37,5677,130.1,3.23,-0.3,3.53,0,,
94.52,5692,130.1,3.23,-0.3,3.53,0,,
95.08,5708,130.1,3.22,-0.3,3.52,0,,
95.24,5724,130.1,3.22,-0.3,3.52,0,,
95.4,5740,129.99,5.7,0.04,3.52,2.14,,
95.55,5755,129.99,3.56,0.04,3.52,0,,
96.11,5771,129.99,3.56,0.04,3.52,0,,
96.27,5787,130.1,1.07,-0.3,3.52,-2.14,,
96.43,5803,129.99,5.69,0.04,3.52,2.14,,
96.58,5818,129.99,3.55,0.04,3.52,0,,
97.14,5834,130.1,1.07,-0.3,3.51,-2.14,,
97.3,5850,129.99,5.69,0.04,3.51,2.14,,
97.46,5866,129.99,3.55,0.04,3.51,0,,
98.02,5882,129.99,3.55,0.04,3.51,0,,
98.17,5897,129.99,3.55,0.04,3.51,0,,
98.33,5913,129.99,3.55,0.04,3.52,0,,
98.49,5929,129.99,3.55,0.04,3.52,0,,
99.05,5945,129.99,3.55,0.04,3.52,0,,
99.2,5960,129.99,3.55,0.04,3.52,0,,
99.36,5976,129.99,3.55,0.04,3.52,0,,
99.52,5992,129.99,3.56,0.04,3.52,0,,
100.08,6008,129.99,3.56,0.04,3.52,0,,
100.23,6023,129.99,3.56,0.04,3.52,0,,
100.39,6039,129.99,3.56,0.04,3.52,0,,
100.55,6055,129.99,3.56,0.04,3.52,0,,
101.11,6071,129.99,3.56,0.04,3.52,0,,
101.27,6087,129.99,3.56,0.04,3.52,0,,
101.42,6102,129.99,3.56,0.04,3.52,0,,
101.58,6118,129.99,3.56,0.04,3.52,0,,
102.14,6134,129.99,3.56,0.04,3.52,0,,
102.3,6150,129.99,3.56,0.04,3.52,0,,
102.45,6165,129.99,3.56,0.04,3.52,0,,
103.01,6181,129.99,3.56,0.04,3.52,0,,
103.17,6197,129.99,3.56,0.04,3.52,0,,
103.33,6213,129.99,3.56,0.04,3.52,0,,
103.48,6228,130.1,1.08,-0.3,3.52,-2.14,,
104.04,6244,129.99,5.7,0.04,3.52,2.14,,
104.2,6260,129.99,3.56,0.04,3.52,0,,
104.36,6276,129.99,3.56,0.04,3.52,0,,
104.52,6292,129.99,3.56,0.04,3.52,0,,
105.07,6307,129.99,3.56,0.04,3.52,0,,
105.23,6323,130.1,1.08,-0.3,3.52,-2.14,,
105.39,6339,129.99,5.7,0.04,3.52,2.14,,
105.55,6355,129.99,3.56,0.04,3.52,0,,
106.1,6370,129.99,3.56,0.04,3.52,0,,
106.26,6386,130.1,1.08,-0.3,3.52,-2.14,,
106.42,6402,130.1,3.21,-0.3,3.51,0,,
106.58,6418,130.1,3.21,-0.3,3.51,0,,
107.13,6433,129.99,5.69,0.04,3.51,2.14,,
107.29,6449,129.99,3.55,0.04,3.51,0,,
107.45,6465,129.99,3.55,0.04,3.51,0,,
108.01,6481,129.99,3.55,0.04,3.51,0,,
108.16,6496,129.99,3.55,0.04,3.51,0,,
108.32,6512,129.99,3.55,0.04,3.51,0,,
108.48,6528,129.99,3.55,0.04,3.51,0,,
109.04,6544,129.99,3.55,0.04,3.51,0,,
109.2,6560,129.99,3.55,0.04,3.51,0,,
109.35,6575,129.99,3.55,0.04,3.51,0,,
109.51,6591,129.99,3.55,0.04,3.51,0,,
110.07,6607,129.99,3.55,0.04,3.51,0,,
110.23,6623,130.1,1.07,-0.3,3.51,-2.14,,
110.38,6638,130.1,3.21,-0.3,3.51,0,,
110.54,6654,130.1,3.2,-0.3,3.5,0,,
111.1,6670,129.99,5.68,0.04,3.5,2.14,,
111.26,6686,130.1,1.06,-0.3,3.5,-2.14,,
111.41,6701,130.1,3.2,-0.3,3.5,0,,
111.57,6717,130.1,3.19,-0.3,3.49,0,,
112.13,6733,130.1,3.19,-0.3,3.49,0,,
112.29,6749,130.1,3.18,-0.3,3.48,0,,
112.45,6765,130.1,3.18,-0.3,3.48,0,,
113,6780,130.1,3.18,-0.3,3.48,0,,
113.16,6796,130.1,3.17,-0.3,3.47,0,,
113.32,6812,130.1,3.17,-0.3,3.47,0,,
113.48,6828,130.1,3.16,-0.3,3.46,0,,
114.03,6843,130.1,3.16,-0.3,3.46,0,,
114.19,6859,129.99,5.64,0.04,3.46,2.14,,
114.35,6875,130.1,1.02,-0.3,3.46,-2.14,,
114.51,6891,130.1,3.15,-0.3,3.45,0,,
115.06,6906,130.1,3.15,-0.3,3.45,0,,
115.22,6922,129.99,5.63,0.04,3.45,2.14,,
115.38,6938,129.99,3.49,0.04,3.45,0,,
115.54,6954,129.99,3.49,0.04,3.45,0,,
116.09,6969,129.99,3.49,0.04,3.45,0,,
116.25,6985,129.99,3.49,0.04,3.45,0,,
116.41,7001,129.99,3.49,0.04,3.45,0,,
116.57,7017,129.99,3.49,0.04,3.45,0,,
117.13,7033,129.99,3.49,0.04,3.45,0,,
117.28,7048,129.99,3.49,0.04,3.45,0,,
117.44,7064,129.99,3.49,0.04,3.45,0,,
118,7080,129.99,3.49,0.04,3.45,0,,
118.16,7096,129.99,3.49,0.04,3.45,0,,
118.31,7111,129.99,3.49,0.04,3.46,0,,
118.47,7127,129.99,3.49,0.04,3.46,0,,
119.03,7143,129.99,3.49,0.04,3.46,0,,
119.19,7159,129.99,3.49,0.04,3.46,0,,
119.34,7174,129.99,3.49,0.04,3.46,0,,
119.5,7190,129.99,3.5,0.04,3.46,0,,
120.06,7206,129.99,3.5,0.04,3.46,0,,
120.22,7222,129.99,3.5,0.04,3.46,0,,
120.38,7238,129.99,3.5,0.04,3.46,0,,
120.53,7253,129.99,3.5,0.04,3.46,0,,
121.09,7269,129.99,3.5,0.04,3.46,0,,
121.25,7285,129.99,3.5,0.04,3.46,0,,
121.41,7301,129.99,3.5,0.04,3.46,0,,
121.56,7316,129.99,3.5,0.04,3.46,0,,
122.12,7332,129.99,3.5,0.04,3.46,0,,
122.28,7348,129.99,3.5,0.04,3.46,0,,
122.44,7364,129.99,3.5,0.04,3.46,0,,
122.59,7379,129.99,3.5,0.04,3.46,0,,
123.15,7395,129.99,3.5,0.04,3.46,0,,
123.31,7411,129.99,3.5,0.04,3.46,0,,
123.47,7427,129.99,3.5,0.04,3.47,0,,
124.02,7442,129.99,3.5,0.04,3.47,0,,
124.18,7458,129.99,3.5,0.04,3.47,0,,
124.34,7474,129.99,3.5,0.04,3.47,0,,
124.5,7490,129.99,3.5,0.04,3.47,0,,
125.06,7506,129.99,3.51,0.04,3.47,0,,
125.21,7521,129.99,3.51,0.04,3.47,0,,
125.37,7537,129.99,3.51,0.04,3.47,0,,
125.53,7553,129.99,3.51,0.04,3.47,0,,
126.09,7569,129.99,3.51,0.04,3.47,0,,
126.24,7584,129.99,3.51,0.04,3.47,0,,
126.4,7600,129.99,3.51,0.04,3.47,0,,
126.56,7616,129.99,3.51,0.04,3.47,0,,
127.12,7632,129.99,3.51,0.04,3.47,0,,
127.27,7647,129.99,3.51,0.04,3.47,0,,
127.43,7663,129.99,3.51,0.04,3.47,0,,
127.59,7679,129.99,3.51,0.04,3.47,0,,
128.15,7695,129.99,3.51,0.04,3.47,0,,
128.31,7711,129.99,3.51,0.04,3.47,0,,
128.46,7726,129.99,3.51,0.04,3.47,0,,
129.02,7742,129.99,3.51,0.04,3.47,0,,
129.18,7758,129.99,3.51,0.04,3.48,0,,
129.34,7774,129.99,3.51,0.04,3.48,0,,
129.49,7789,129.99,3.51,0.04,3.48,0,,
130.05,7805,129.99,3.51,0.04,3.48,0,,
130.21,7821,129.99,3.51,0.04,3.48,0,,
130.37,7837,129.99,3.52,0.04,3.48,0,,
130.52,7852,129.99,3.52,0.04,3.48,0,,
131.08,7868,129.99,3.52,0.04,3.48,0,,
131.24,7884,129.99,3.52,0.04,3.48,0,,
131.4,7900,129.99,3.52,0.04,3.48,0,,
131.56,7916,129.99,3.52,0.04,3.48,0,,
132.11,7931,129.99,3.52,0.04,3.48,0,,
132.27,7947,129.99,3.52,0.04,3.48,0,,
132.43,7963,129.99,3.52,0.04,3.48,0,,
132.59,7979,129.99,3.52,0.04,3.48,0,,
133.14,7994,129.99,3.52,0.04,3.48,0,,
133.3,8010,129.99,3.52,0.04,3.48,0,,
133.46,8026,129.99,3.52,0.04,3.48,0,,
134.02,8042,129.99,3.52,0.04,3.48,0,,
134.17,8057,129.99,3.52,0.04,3.48,0,,
134.33,8073,129.99,3.52,0.04,3.49,0,,
134.49,8089,129.99,3.52,0.04,3.49,0,,
135.05,8105,129.99,3.52,0.04,3.49,0,,
135.2,8120,129.99,3.52,0.04,3.49,0,,
135.36,8136,129.99,3.52,0.04,3.49,0,,
135.52,8152,129.99,3.53,0.04,3.49,0,,
136.08,8168,129.99,3.53,0.04,3.49,0,,
136.24,8184,129.99,3.53,0.04,3.49,0,,
