TIME(min),TIME(sec),INPUT(F),OUTPUT(sec),PROPORTIONAL(sec),INTEGRATOR(sec),DERIVATIVE(sec),Notes,Average output
0,0,150.01,,29.96,3.7,,Target temperature 160F,6.980996678
0.16,16,150.01,33.66,29.96,3.7,0,full pot of water,
0.32,32,150.01,33.66,29.96,3.7,0,Kp = 3000,
0.48,48,150.01,33.66,29.96,3.7,0,Ki = 0.0025,
1.03,63,150.01,33.66,29.96,3.7,0,Kd = 300000000,
1.19,79,150.01,33.66,29.96,3.7,0,Period = 15000 ms,
1.35,95,150.01,33.66,29.96,3.7,0,Initial Integrator error = 3700 ms,
1.51,111,150.01,33.66,29.96,3.7,0,Integrator range = 1 F,
2.07,127,150.01,33.66,29.96,3.7,0,,
2.22,142,150.01,33.66,29.96,3.7,0,,
2.38,158,150.13,31.18,29.62,3.7,-2.14,,
2.54,174,150.13,33.33,29.62,3.7,0,,
3.1,190,150.13,33.33,29.62,3.7,0,,
3.25,205,150.24,30.85,29.29,3.7,-2.14,,
3.41,221,150.24,32.99,29.29,3.7,0,,
3.57,237,150.24,32.99,29.29,3.7,0,,
4.13,253,150.35,30.51,28.95,3.7,-2.14,,
4.28,268,150.35,32.65,28.95,3.7,0,,
4.44,284,150.46,30.17,28.61,3.7,-2.14,,
5,300,150.46,32.31,28.61,3.7,0,,
5.16,316,150.58,29.83,28.28,3.7,-2.14,,
5.32,332,150.69,29.5,27.94,3.7,-2.14,,
5.47,347,150.69,31.64,27.94,3.7,0,,
6.03,363,150.69,31.64,27.94,3.7,0,,
6.19,379,150.8,29.16,27.6,3.7,-2.14,,
6.35,395,150.91,28.82,27.26,3.7,-2.14,,
6.5,410,151.02,28.48,26.93,3.7,-2.14,,
7.06,426,151.14,28.15,26.59,3.7,-2.14,,
7.22,442,151.25,27.81,26.25,3.7,-2.14,,
7.38,458,151.36,27.47,25.91,3.7,-2.14,,
7.53,473,151.48,27.13,25.57,3.7,-2.14,,
8.09,489,151.59,26.8,25.24,3.7,-2.14,,
8.25,505,151.7,26.46,24.9,3.7,-2.14,,
8.41,521,151.81,26.12,24.56,3.7,-2.14,,
8.56,536,151.92,25.78,24.23,3.7,-2.14,,
9.12,552,152.15,22.97,23.55,3.7,-4.28,,
9.28,568,152.26,24.77,23.21,3.7,-2.14,,
9.44,584,152.38,24.43,22.87,3.7,-2.14,,
10,600,152.49,24.1,22.54,3.7,-2.14,,
10.15,615,152.6,23.76,22.2,3.7,-2.14,,
10.31,631,152.71,23.42,21.86,3.7,-2.14,,
10.47,647,152.83,23.08,21.53,3.7,-2.14,,
11.03,663,152.94,22.75,21.19,3.7,-2.14,,
11.18,678,153.16,19.93,20.51,3.7,-4.28,,
11.34,694,153.27,21.73,20.18,3.7,-2.14,,
11.5,710,153.39,21.4,19.84,3.7,-2.14,,
12.06,726,153.5,21.06,19.5,3.7,-2.14,,
12.21,741,153.73,18.24,18.82,3.7,-4.28,,
12.37,757,153.84,20.05,18.49,3.7,-2.14,,
12.53,773,153.95,19.71,18.15,3.7,-2.14,,
13.09,789,154.17,16.89,17.48,3.7,-4.28,,
13.25,805,154.29,18.7,17.14,3.7,-2.14,,
13.4,820,154.4,18.36,16.8,3.7,-2.14,,
13.56,836,154.51,18.02,16.46,3.7,-2.14,,
14.12,852,154.74,15.21,15.79,3.7,-4.28,,
14.28,868,154.85,17.01,15.45,3.7,-2.14,,
14.43,883,154.96,16.67,15.11,3.7,-2.14,,
14.59,899,155.08,16.33,14.78,3.7,-2.14,,
15.15,915,155.3,13.52,14.1,3.7,-4.28,,
15.31,931,155.41,15.32,13.76,3.7,-2.14,,
15.46,946,155.64,12.51,13.09,3.7,-4.28,,
16.02,962,155.86,11.83,12.41,3.7,-4.28,,
16.18,978,155.98,13.63,12.07,3.7,-2.14,,
16.34,994,156.09,13.3,11.74,3.7,-2.14,,
16.5,1010,156.2,12.96,11.4,3.7,-2.14,,
17.05,1025,156.31,12.62,11.06,3.7,-2.14,,
17.21,1041,156.54,9.81,10.39,3.7,-4.28,,
17.37,1057,156.65,11.61,10.05,3.7,-2.14,,
17.53,1073,156.76,11.27,9.71,3.7,-2.14,,
18.08,1088,156.88,10.93,9.38,3.7,-2.14,,
18.24,1104,157.1,8.12,8.7,3.7,-4.28,,
18.4,1120,157.21,9.92,8.36,3.7,-2.14,,
18.56,1136,157.33,9.58,8.03,3.7,-2.14,,
19.11,1151,157.55,6.77,7.35,3.7,-4.28,,
19.27,1167,157.66,8.57,7.01,3.7,-2.14,,
19.43,1183,157.77,8.23,6.68,3.7,-2.14,,
19.59,1199,157.89,7.9,6.34,3.7,-2.14,,
20.14,1214,158.11,5.08,5.66,3.7,-4.28,,
20.3,1230,158.23,6.88,5.32,3.7,-2.14,,
20.46,1246,158.34,6.55,4.99,3.7,-2.14,,
21.02,1262,158.45,6.21,4.65,3.7,-2.14,,
21.18,1278,158.56,5.87,4.31,3.7,-2.14,,
21.33,1293,158.67,5.53,3.98,3.7,-2.14,,
21.49,1309,158.79,5.2,3.64,3.7,-2.14,,
22.05,1325,158.9,4.86,3.3,3.7,-2.14,,
22.21,1341,158.9,7,3.3,3.7,0,,
22.36,1356,159.01,4.56,2.96,3.74,-2.14,,
22.52,1372,159.13,4.26,2.63,3.77,-2.14,,
23.08,1388,159.24,3.95,2.29,3.8,-2.14,,
23.24,1404,159.35,3.64,1.95,3.83,-2.14,,
23.39,1419,159.46,3.32,1.61,3.85,-2.14,,
23.55,1435,159.46,5.48,1.61,3.87,0,,
24.11,1451,159.58,3.02,1.28,3.89,-2.14,,
24.27,1467,159.69,2.7,0.94,3.9,-2.14,,
24.43,1483,159.69,4.85,0.94,3.91,0,,
24.58,1498,159.8,2.38,0.6,3.92,-2.14,,
25.14,1514,159.8,4.53,0.6,3.93,0,,
25.3,1530,159.91,2.05,0.26,3.93,-2.14,,
25.46,1546,159.91,4.2,0.26,3.94,0,,
26.01,1561,160.02,1.72,-0.07,3.93,-2.14,,
26.17,1577,160.02,3.86,-0.07,3.93,0,,
26.33,1593,160.02,3.86,-0.07,3.93,0,,
26.49,1609,160.14,1.37,-0.41,3.93,-2.14,,
27.04,1624,160.14,3.51,-0.41,3.92,0,,
27.2,1640,160.14,3.5,-0.41,3.92,0,,
27.36,1656,160.25,1.02,-0.75,3.91,-2.14,,
27.52,1672,160.25,3.15,-0.75,3.9,0,,
28.08,1688,160.25,3.14,-0.75,3.89,0,,
28.23,1703,160.25,3.13,-0.75,3.88,0,,
28.39,1719,160.25,3.12,-0.75,3.87,0,,
28.55,1735,160.25,3.11,-0.75,3.86,0,,
29.11,1751,160.25,3.1,-0.75,3.85,0,,
29.26,1766,160.25,3.09,-0.75,3.84,0,,
29.42,1782,160.25,3.08,-0.75,3.83,0,,
29.58,1798,160.14,5.55,-0.41,3.82,2.14,,
30.14,1814,160.14,3.4,-0.41,3.82,0,,
30.29,1829,160.14,3.4,-0.41,3.81,0,,
30.45,1845,160.14,3.39,-0.41,3.81,0,,
31.01,1861,160.02,5.87,-0.07,3.8,2.14,,
31.17,1877,160.02,3.73,-0.07,3.8,0,,
31.32,1892,160.02,3.73,-0.07,3.8,0,,
31.48,1908,160.02,3.73,-0.07,3.8,0,,
32.04,1924,159.91,6.21,0.26,3.81,2.14,,
32.2,1940,159.91,4.07,0.26,3.81,0,,
32.36,1956,159.91,4.07,0.26,3.81,0,,
32.51,1971,159.91,4.08,0.26,3.82,0,,
33.07,1987,159.91,4.08,0.26,3.82,0,,
33.23,2003,159.8,6.57,0.6,3.83,2.14,,
33.39,2019,159.8,4.44,0.6,3.84,0,,
33.54,2034,159.8,4.44,0.6,3.84,0,,
34.1,2050,159.8,4.45,0.6,3.85,0,,
34.26,2066,159.69,6.94,0.94,3.86,2.14,,
34.42,2082,159.69,4.81,0.94,3.88,0,,
34.57,2097,159.58,7.31,1.28,3.89,2.14,,
35.13,2113,159.58,5.18,1.28,3.91,0,,
35.29,2129,159.58,5.2,1.28,3.93,0,,
35.45,2145,159.58,5.22,1.28,3.94,0,,
36.01,2161,159.58,5.23,1.28,3.96,0,,
36.16,2176,159.58,5.25,1.28,3.98,0,,
36.32,2192,159.58,5.27,1.28,3.99,0,,
36.48,2208,159.58,5.28,1.28,4.01,0,,
37.04,2224,159.46,7.78,1.61,4.03,2.14,,
37.19,2239,159.46,5.66,1.61,4.05,0,,
37.35,2255,159.46,5.69,1.61,4.07,0,,
37.51,2271,159.46,5.71,1.61,4.09,0,,
38.07,2287,159.46,5.73,1.61,4.12,0,,
38.22,2302,159.35,8.23,1.95,4.14,2.14,,
38.38,2318,159.35,6.12,1.95,4.17,0,,
38.54,2334,159.35,6.14,1.95,4.19,0,,
39.1,2350,159.35,6.17,1.95,4.22,0,,
39.25,2365,159.35,6.19,1.95,4.24,0,,
39.41,2381,159.35,6.22,1.95,4.27,0,,
39.57,2397,159.35,6.24,1.95,4.29,0,,
40.13,2413,159.24,8.75,2.29,4.32,2.14,,
40.29,2429,159.35,4.16,1.95,4.35,-2.14,,
40.44,2444,159.24,8.81,2.29,4.38,2.14,,
41,2460,159.24,6.7,2.29,4.41,0,,
41.16,2476,159.24,6.73,2.29,4.44,0,,
41.32,2492,159.24,6.76,2.29,4.47,0,,
41.47,2507,159.35,4.31,1.95,4.5,-2.14,,
42.03,2523,159.24,8.95,2.29,4.53,2.14,,
42.19,2539,159.35,4.36,1.95,4.55,-2.14,,
42.35,2555,159.35,6.53,1.95,4.58,0,,
42.5,2570,159.24,9.04,2.29,4.61,2.14,,
43.06,2586,159.24,6.93,2.29,4.64,0,,
43.22,2602,159.24,6.96,2.29,4.67,0,,
43.38,2618,159.24,6.99,2.29,4.7,0,,
43.54,2634,159.24,7.02,2.29,4.73,0,,
44.09,2649,159.24,7.05,2.29,4.76,0,,
44.25,2665,159.24,7.08,2.29,4.79,0,,
44.41,2681,159.24,7.11,2.29,4.82,0,,
44.57,2697,159.24,7.14,2.29,4.85,0,,
45.12,2712,159.35,4.68,1.95,4.87,-2.14,,
45.28,2728,159.24,9.33,2.29,4.9,2.14,,
45.44,2744,159.24,7.22,2.29,4.93,0,,
46,2760,159.24,7.25,2.29,4.96,0,,
46.15,2775,159.24,7.28,2.29,4.99,0,,
46.31,2791,159.24,7.31,2.29,5.02,0,,
46.47,2807,159.35,4.86,1.95,5.05,-2.14,,
47.03,2823,159.35,7.03,1.95,5.08,0,,
47.19,2839,159.35,7.05,1.95,5.1,0,,
47.34,2854,159.35,7.08,1.95,5.13,0,,
47.5,2870,159.35,7.1,1.95,5.15,0,,
48.06,2886,159.35,7.13,1.95,5.18,0,,
48.22,2902,159.35,7.15,1.95,5.2,0,,
48.37,2917,159.35,7.18,1.95,5.23,0,,
48.53,2933,159.35,7.2,1.95,5.25,0,,
49.09,2949,159.35,7.23,1.95,5.28,0,,
49.25,2965,159.35,7.26,1.95,5.31,0,,
49.4,2980,159.35,7.28,1.95,5.33,0,,
49.56,2996,159.35,7.31,1.95,5.36,0,,
50.12,3012,159.35,7.33,1.95,5.38,0,,
50.28,3028,159.35,7.36,1.95,5.41,0,,
50.43,3043,159.46,4.9,1.61,5.43,-2.14,,
50.59,3059,159.46,7.06,1.61,5.45,0,,
51.15,3075,159.46,7.08,1.61,5.47,0,,
51.31,3091,159.46,7.11,1.61,5.49,0,,
51.47,3107,159.46,7.13,1.61,5.51,0,,
52.02,3122,159.46,7.15,1.61,5.54,0,,
52.18,3138,159.46,7.17,1.61,5.56,0,,
52.34,3154,159.46,7.19,1.61,5.58,0,,
52.5,3170,159.46,7.21,1.61,5.6,0,,
53.05,3185,159.58,4.75,1.28,5.62,-2.14,,
53.21,3201,159.58,6.91,1.28,5.63,0,,
53.37,3217,159.58,6.92,1.28,5.65,0,,
53.53,3233,159.58,6.94,1.28,5.67,0,,
54.08,3248,159.58,6.96,1.28,5.68,0,,
54.24,3264,159.58,6.97,1.28,5.7,0,,
54.4,3280,159.58,6.99,1.28,5.72,0,,
54.56,3296,159.69,4.53,0.94,5.73,-2.14,,
55.12,3312,159.58,9.16,1.28,5.75,2.14,,
55.27,3327,159.58,7.04,1.28,5.76,0,,
55.43,3343,159.69,4.57,0.94,5.77,-2.14,,
55.59,3359,159.69,6.72,0.94,5.79,0,,
56.15,3375,159.69,6.74,0.94,5.8,0,,
56.3,3390,159.69,6.75,0.94,5.81,0,,
56.46,3406,159.69,6.76,0.94,5.82,0,,
57.02,3422,159.69,6.77,0.94,5.84,0,,
57.18,3438,159.69,6.79,0.94,5.85,0,,
57.33,3453,159.69,6.8,0.94,5.86,0,,
57.49,3469,159.69,6.81,0.94,5.87,0,,
58.05,3485,159.69,6.82,0.94,5.89,0,,
58.21,3501,159.8,4.35,0.6,5.89,-2.14,,
58.36,3516,159.8,6.5,0.6,5.9,0,,
58.52,3532,159.8,6.51,0.6,5.91,0,,
59.08,3548,159.8,6.52,0.6,5.92,0,,
59.24,3564,159.8,6.52,0.6,5.92,0,,
59.4,3580,159.8,6.53,0.6,5.93,0,,
59.55,3595,159.8,6.54,0.6,5.94,0,,
60.11,3611,159.8,6.55,0.6,5.95,0,,
60.27,3627,159.8,6.56,0.6,5.96,0,,
60.43,3643,159.91,4.08,0.26,5.96,-2.14,,
60.58,3658,159.91,6.23,0.26,5.96,0,,
61.14,3674,159.91,6.23,0.26,5.97,0,,
61.3,3690,159.8,8.72,0.6,5.97,2.14,,
61.46,3706,159.91,4.1,0.26,5.98,-2.14,,
62.01,3721,159.91,6.24,0.26,5.98,0,,
62.17,3737,159.91,6.25,0.26,5.98,0,,
62.33,3753,159.91,6.25,0.26,5.99,0,,
62.49,3769,159.91,6.25,0.26,5.99,0,,
63.05,3785,159.91,6.26,0.26,6,0,,
63.2,3800,159.91,6.26,0.26,6,0,,
63.36,3816,159.91,6.26,0.26,6,0,,
63.52,3832,159.91,6.27,0.26,6.01,0,,
64.08,3848,160.02,3.79,-0.07,6,-2.14,,
64.23,3863,159.91,8.41,0.26,6.01,2.14,,
64.39,3879,159.91,6.27,0.26,6.01,0,,
64.55,3895,159.91,6.28,0.26,6.01,0,,
65.11,3911,159.91,6.28,0.26,6.02,0,,
65.26,3926,159.91,6.28,0.26,6.02,0,,
65.42,3942,159.91,6.29,0.26,6.03,0,,
65.58,3958,159.91,6.29,0.26,6.03,0,,
66.14,3974,159.91,6.29,0.26,6.03,0,,
66.29,3989,160.02,3.82,-0.07,6.03,-2.14,,
66.45,4005,160.02,5.96,-0.07,6.03,0,,
67.01,4021,160.02,5.95,-0.07,6.03,0,,
67.17,4037,160.02,5.95,-0.07,6.03,0,,
67.33,4053,160.02,5.95,-0.07,6.03,0,,
67.48,4068,160.02,5.95,-0.07,6.03,0,,
68.04,4084,160.02,5.95,-0.07,6.03,0,,
68.2,4100,160.02,5.95,-0.07,6.02,0,,
68.36,4116,160.02,5.95,-0.07,6.02,0,,
68.51,4131,160.02,5.95,-0.07,6.02,0,,
69.07,4147,160.02,5.95,-0.07,6.02,0,,
69.23,4163,160.02,5.95,-0.07,6.02,0,,
69.39,4179,159.91,8.43,0.26,6.02,2.14,,
69.54,4194,160.02,3.81,-0.07,6.02,-2.14,,
70.1,4210,160.02,5.95,-0.07,6.02,0,,
70.26,4226,160.02,5.95,-0.07,6.02,0,,
70.42,4242,159.91,8.43,0.26,6.02,2.14,,
70.58,4258,159.91,6.29,0.26,6.03,0,,
71.13,4273,159.91,6.29,0.26,6.03,0,,
71.29,4289,159.91,6.3,0.26,6.03,0,,
71.45,4305,159.91,6.3,0.26,6.04,0,,
72.01,4321,159.91,6.3,0.26,6.04,0,,
72.16,4336,159.91,6.31,0.26,6.04,0,,
72.32,4352,159.91,6.31,0.26,6.05,0,,
72.48,4368,159.91,6.31,0.26,6.05,0,,
73.04,4384,160.02,3.84,-0.07,6.05,-2.14,,
73.19,4399,159.91,8.46,0.26,6.05,2.14,,
73.35,4415,159.91,6.32,0.26,6.06,0,,
73.51,4431,159.91,6.32,0.26,6.06,0,,
74.07,4447,159.91,6.33,0.26,6.06,0,,
74.23,4463,159.91,6.33,0.26,6.07,0,,
74.38,4478,159.91,6.33,0.26,6.07,0,,
74.54,4494,159.91,6.34,0.26,6.07,0,,
75.1,4510,159.91,6.34,0.26,6.08,0,,
75.26,4526,159.91,6.34,0.26,6.08,0,,
75.41,4541,160.02,3.87,-0.07,6.08,-2.14,,
75.57,4557,159.91,8.49,0.26,6.08,2.14,,
76.13,4573,159.91,6.35,0.26,6.09,0,,
76.29,4589,159.91,6.35,0.26,6.09,0,,
76.44,4604,159.91,6.36,0.26,6.09,0,,
77,4620,159.91,6.36,0.26,6.1,0,,
77.16,4636,159.91,6.36,0.26,6.1,0,,
77.32,4652,159.91,6.37,0.26,6.1,0,,
77.47,4667,159.91,6.37,0.26,6.11,0,,
78.03,4683,159.91,6.37,0.26,6.11,0,,
78.19,4699,159.91,6.38,0.26,6.12,0,,
78.35,4715,159.91,6.38,0.26,6.12,0,,
78.51,4731,159.91,6.38,0.26,6.12,0,,
79.06,4746,159.91,6.39,0.26,6.13,0,,
79.22,4762,159.91,6.39,0.26,6.13,0,,
79.38,4778,159.91,6.4,0.26,6.13,0,,
79.54,4794,159.91,6.4,0.26,6.14,0,,
80.09,4809,159.91,6.4,0.26,6.14,0,,
80.25,4825,159.91,6.41,0.26,6.14,0,,
80.41,4841,159.91,6.41,0.26,6.15,0,,
80.57,4857,159.91,6.41,0.26,6.15,0,,
81.12,4872,159.91,6.42,0.26,6.15,0,,
81.28,4888,159.91,6.42,0.26,6.16,0,,
81.44,4904,159.91,6.42,0.26,6.16,0,,
82,4920,159.91,6.43,0.26,6.16,0,,
82.16,4936,159.91,6.43,0.26,6.17,0,,
82.31,4951,159.91,6.43,0.26,6.17,0,,
82.47,4967,159.91,6.44,0.26,6.17,0,,
83.03,4983,159.91,6.44,0.26,6.18,0,,
83.19,4999,159.91,6.44,0.26,6.18,0,,
83.34,5014,160.02,3.96,-0.07,6.18,-2.14,,
83.5,5030,160.02,6.1,-0.07,6.18,0,,
84.06,5046,160.02,6.1,-0.07,6.18,0,,
84.22,5062,160.02,6.1,-0.07,6.18,0,,
84.37,5077,160.02,6.1,-0.07,6.18,0,,
84.53,5093,160.02,6.1,-0.07,6.17,0,,
85.09,5109,160.02,6.1,-0.07,6.17,0,,
85.25,5125,160.02,6.1,-0.07,6.17,0,,
85.4,5140,160.02,6.1,-0.07,6.17,0,,
85.56,5156,160.02,6.1,-0.07,6.17,0,,
86.12,5172,160.02,6.1,-0.07,6.17,0,,
86.28,5188,160.02,6.09,-0.07,6.17,0,,
86.44,5204,160.02,6.09,-0.07,6.17,0,,
86.59,5219,160.02,6.09,-0.07,6.17,0,,
87.15,5235,160.02,6.09,-0.07,6.17,0,,
87.31,5251,160.02,6.09,-0.07,6.17,0,,
87.47,5267,160.02,6.09,-0.07,6.16,0,,
88.02,5282,160.02,6.09,-0.07,6.16,0,,
88.18,5298,159.91,8.57,0.26,6.17,2.14,,
88.34,5314,159.91,6.43,0.26,6.17,0,,
88.5,5330,159.91,6.44,0.26,6.17,0,,
89.05,5345,159.91,6.44,0.26,6.18,0,,
89.21,5361,159.91,6.44,0.26,6.18,0,,
89.37,5377,159.91,6.45,0.26,6.18,0,,
89.53,5393,159.91,6.45,0.26,6.19,0,,
90.09,5409,160.02,3.97,-0.07,6.19,-2.14,,
90.24,5424,160.02,6.11,-0.07,6.19,0,,
90.4,5440,160.02,6.11,-0.07,6.18,0,,
90.56,5456,160.02,6.11,-0.07,6.18,0,,
91.12,5472,160.02,6.11,-0.07,6.18,0,,
91.27,5487,160.02,6.11,-0.07,6.18,0,,
91.43,5503,160.02,6.11,-0.07,6.18,0,,
91.59,5519,160.02,6.1,-0.07,6.18,0,,
92.15,5535,160.02,6.1,-0.07,6.18,0,,
92.3,5550,159.91,8.58,0.26,6.18,2.14,,
92.46,5566,159.91,6.45,0.26,6.19,0,,
93.02,5582,159.91,6.45,0.26,6.19,0,,
93.18,5598,159.91,6.45,0.26,6.19,0,,
93.33,5613,160.02,3.98,-0.07,6.19,-2.14,,
93.49,5629,159.91,8.6,0.26,6.19,2.14,,
94.05,5645,159.91,6.46,0.26,6.2,0,,
94.21,5661,159.91,6.46,0.26,6.2,0,,
94.37,5677,160.02,3.99,-0.07,6.2,-2.14,,
94.52,5692,159.91,8.61,0.26,6.2,2.14,,
95.08,5708,159.91,6.47,0.26,6.21,0,,
95.24,5724,159.91,6.47,0.26,6.21,0,,
95.4,5740,160.02,3.99,-0.07,6.21,-2.14,,
95.55,5755,159.91,8.62,0.26,6.21,2.14,,
96.11,5771,159.91,6.48,0.26,6.22,0,,
96.27,5787,159.91,6.48,0.26,6.22,0,,
96.43,5803,159.91,6.49,0.26,6.22,0,,
96.58,5818,159.91,6.49,0.26,6.23,0,,
97.14,5834,159.91,6.49,0.26,6.23,0,,
97.3,5850,159.91,6.5,0.26,6.23,0,,
97.46,5866,159.91,6.5,0.26,6.24,0,,
98.02,5882,159.91,6.5,0.26,6.24,0,,
98.17,5897,159.91,6.51,0.26,6.24,0,,
98.33,5913,159.91,6.51,0.26,6.25,0,,
98.49,5929,159.91,6.51,0.26,6.25,0,,
99.05,5945,159.91,6.52,0.26,6.25,0,,
99.2,5960,159.91,6.52,0.26,6.26,0,,
99.36,5976,159.91,6.52,0.26,6.26,0,,
99.52,5992,160.02,4.05,-0.07,6.26,-2.14,,
100.08,6008,159.91,8.67,0.26,6.26,2.14,,
100.23,6023,159.91,6.53,0.26,6.27,0,,
100.39,6039,159.91,6.53,0.26,6.27,0,,
100.55,6055,159.91,6.54,0.26,6.27,0,,
101.11,6071,160.02,4.06,-0.07,6.27,-2.14,,
101.27,6087,160.02,6.2,-0.07,6.27,0,,
101.42,6102,159.91,8.68,0.26,6.28,2.14,,
101.58,6118,159.91,6.54,0.26,6.28,0,,
102.14,6134,160.02,4.06,-0.07,6.28,-2.14,,
102.3,6150,160.02,6.2,-0.07,6.28,0,,
102.45,6165,160.02,6.2,-0.07,6.28,0,,
103.01,6181,160.02,6.2,-0.07,6.28,0,,
103.17,6197,160.02,6.2,-0.07,6.27,0,,
103.33,6213,160.02,6.2,-0.07,6.27,0,,
103.48,6228,160.02,6.2,-0.07,6.27,0,,
104.04,6244,159.91,8.68,0.26,6.28,2.14,,
104.2,6260,159.91,6.54,0.26,6.28,0,,
104.36,6276,159.91,6.55,0.26,6.28,0,,
104.51,6291,160.02,4.07,-0.07,6.28,-2.14,,
105.07,6307,160.02,6.21,-0.07,6.28,0,,
105.23,6323,159.91,8.69,0.26,6.28,2.14,,
105.39,6339,159.91,6.55,0.26,6.29,0,,
105.55,6355,159.91,6.55,0.26,6.29,0,,
106.1,6370,160.02,4.07,-0.07,6.29,-2.14,,
106.26,6386,160.02,6.21,-0.07,6.29,0,,
106.42,6402,160.02,6.21,-0.07,6.29,0,,
106.58,6418,160.02,6.21,-0.07,6.29,0,,
107.13,6433,160.02,6.21,-0.07,6.29,0,,
107.29,6449,160.02,6.21,-0.07,6.29,0,,
107.45,6465,160.02,6.21,-0.07,6.28,0,,
108.01,6481,160.02,6.21,-0.07,6.28,0,,
108.16,6496,160.02,6.21,-0.07,6.28,0,,
108.32,6512,160.02,6.21,-0.07,6.28,0,,
108.48,6528,160.02,6.21,-0.07,6.28,0,,
109.04,6544,160.02,6.2,-0.07,6.28,0,,
109.2,6560,160.02,6.2,-0.07,6.28,0,,
109.35,6575,160.02,6.2,-0.07,6.28,0,,
109.51,6591,160.02,6.2,-0.07,6.28,0,,
110.07,6607,160.02,6.2,-0.07,6.28,0,,
110.23,6623,160.02,6.2,-0.07,6.27,0,,
110.38,6638,160.02,6.2,-0.07,6.27,0,,
110.54,6654,160.02,6.2,-0.07,6.27,0,,
111.1,6670,160.02,6.2,-0.07,6.27,0,,
111.26,6686,160.02,6.2,-0.07,6.27,0,,
111.41,6701,160.02,6.19,-0.07,6.27,0,,
111.57,6717,160.02,6.19,-0.07,6.27,0,,
112.13,6733,160.02,6.19,-0.07,6.27,0,,
112.29,6749,160.02,6.19,-0.07,6.27,0,,
112.44,6764,160.02,6.19,-0.07,6.27,0,,
113,6780,160.02,6.19,-0.07,6.26,0,,
113.16,6796,159.91,8.67,0.26,6.27,2.14,,
113.32,6812,160.02,4.05,-0.07,6.27,-2.14,,
113.48,6828,160.02,6.19,-0.07,6.27,0,,
114.03,6843,160.02,6.19,-0.07,6.27,0,,
114.19,6859,160.02,6.19,-0.07,6.26,0,,
114.35,6875,160.02,6.19,-0.07,6.26,0,,
114.51,6891,160.02,6.19,-0.07,6.26,0,,
115.06,6906,160.02,6.19,-0.07,6.26,0,,
115.22,6922,160.02,6.19,-0.07,6.26,0,,
115.38,6938,160.02,6.18,-0.07,6.26,0,,
115.54,6954,160.02,6.18,-0.07,6.26,0,,
116.09,6969,159.91,8.66,0.26,6.26,2.14,,
116.25,6985,159.91,6.53,0.26,6.27,0,,
116.41,7001,160.02,4.05,-0.07,6.26,-2.14,,
116.57,7017,160.02,6.19,-0.07,6.26,0,,
117.13,7033,160.02,6.19,-0.07,6.26,0,,
117.28,7048,160.02,6.19,-0.07,6.26,0,,
117.44,7064,160.02,6.19,-0.07,6.26,0,,
118,7080,160.02,6.18,-0.07,6.26,0,,
118.16,7096,160.02,6.18,-0.07,6.26,0,,
118.31,7111,160.02,6.18,-0.07,6.26,0,,
118.47,7127,160.02,6.18,-0.07,6.26,0,,
119.03,7143,160.02,6.18,-0.07,6.26,0,,
119.19,7159,160.02,6.18,-0.07,6.25,0,,
119.34,7174,160.02,6.18,-0.07,6.25,0,,
119.5,7190,160.14,3.69,-0.41,6.25,-2.14,,
120.06,7206,160.02,8.31,-0.07,6.25,2.14,,
120.22,7222,160.02,6.17,-0.07,6.25,0,,
120.38,7238,160.02,6.17,-0.07,6.24,0,,
120.53,7253,160.02,6.17,-0.07,6.24,0,,
121.09,7269,160.02,6.17,-0.07,6.24,0,,
121.25,7285,160.02,6.17,-0.07,6.24,0,,
121.41,7301,160.02,6.17,-0.07,6.24,0,,
121.56,7316,160.02,6.17,-0.07,6.24,0,,
122.12,7332,160.02,6.16,-0.07,6.24,0,,
122.28,7348,160.02,6.16,-0.07,6.24,0,,
122.44,7364,160.02,6.16,-0.07,6.24,0,,
122.59,7379,160.02,6.16,-0.07,6.24,0,,
123.15,7395,160.02,6.16,-0.07,6.24,0,,
123.31,7411,160.02,6.16,-0.07,6.23,0,,
123.47,7427,160.02,6.16,-0.07,6.23,0,,
124.02,7442,160.02,6.16,-0.07,6.23,0,,
124.18,7458,160.02,6.16,-0.07,6.23,0,,
124.34,7474,160.02,6.16,-0.07,6.23,0,,
124.5,7490,160.02,6.15,-0.07,6.23,0,,
125.06,7506,160.02,6.15,-0.07,6.23,0,,
125.21,7521,160.02,6.15,-0.07,6.23,0,,
125.37,7537,160.02,6.15,-0.07,6.23,0,,
125.53,7553,160.02,6.15,-0.07,6.23,0,,
126.09,7569,160.02,6.15,-0.07,6.22,0,,
126.24,7584,160.02,6.15,-0.07,6.22,0,,
126.4,7600,160.02,6.15,-0.07,6.22,0,,
126.56,7616,160.02,6.15,-0.07,6.22,0,,
127.12,7632,160.02,6.15,-0.07,6.22,0,,
127.27,7647,160.02,6.14,-0.07,6.22,0,,
127.43,7663,160.02,6.14,-0.07,6.22,0,,
127.59,7679,160.02,6.14,-0.07,6.22,0,,
128.15,7695,160.02,6.14,-0.07,6.22,0,,
128.31,7711,160.02,6.14,-0.07,6.22,0,,
128.46,7726,160.02,6.14,-0.07,6.21,0,,
129.02,7742,160.02,6.14,-0.07,6.21,0,,
129.18,7758,160.02,6.14,-0.07,6.21,0,,
129.34,7774,160.02,6.14,-0.07,6.21,0,,
129.49,7789,160.02,6.14,-0.07,6.21,0,,
130.05,7805,160.02,6.13,-0.07,6.21,0,,
130.21,7821,160.02,6.13,-0.07,6.21,0,,
130.37,7837,160.02,6.13,-0.07,6.21,0,,
130.52,7852,160.02,6.13,-0.07,6.21,0,,
131.08,7868,160.02,6.13,-0.07,6.21,0,,
131.24,7884,160.02,6.13,-0.07,6.2,0,,
131.4,7900,160.14,3.65,-0.41,6.2,-2.14,,
131.55,7915,160.02,8.26,-0.07,6.2,2.14,,
132.11,7931,160.02,6.12,-0.07,6.2,0,,
132.27,7947,160.02,6.12,-0.07,6.2,0,,
132.43,7963,160.02,6.12,-0.07,6.2,0,,
132.59,7979,160.02,6.12,-0.07,6.19,0,,
133.14,7994,160.02,6.12,-0.07,6.19,0,,
133.3,8010,160.02,6.12,-0.07,6.19,0,,
133.46,8026,160.02,6.12,-0.07,6.19,0,,
134.02,8042,160.02,6.12,-0.07,6.19,0,,
134.17,8057,160.02,6.11,-0.07,6.19,0,,
134.33,8073,160.02,6.11,-0.07,6.19,0,,
134.49,8089,160.02,6.11,-0.07,6.19,0,,
135.05,8105,160.02,6.11,-0.07,6.19,0,,
135.2,8120,160.02,6.11,-0.07,6.19,0,,
135.36,8136,160.02,6.11,-0.07,6.18,0,,
