TIME(sec),INPUT(F),OUTPUT(sec),Notes
0,87.35,132.95,Target temperature 130F
16,87.46,132.61,full pot of water
32,87.69,131.94,Kp = 3000
48,87.8,131.6,Ki = 0.005
63,88.02,130.93,Kd = 0
79,88.14,130.59,Period = 15000 ms
95,88.25,130.25,Inital Integrator error = 5000 ms
111,88.47,129.58,Integrator range = 2F
127,88.59,129.24,
142,88.81,128.56,
158,88.93,128.22,
174,89.15,127.55,
190,89.37,126.87,
205,89.49,126.54,
221,89.71,125.86,
237,89.94,125.19,
253,90.16,124.51,
268,90.27,124.18,
284,90.5,123.5,
300,90.61,123.16,
316,90.84,122.49,
331,91.06,121.81,
347,91.18,121.47,
363,91.4,120.8,
379,91.51,120.46,
395,91.62,120.12,
410,91.85,119.45,
426,92.07,118.78,
442,92.19,118.44,
458,92.41,117.76,
473,92.64,117.09,
489,92.75,116.75,
505,92.97,116.08,
521,93.2,115.4,
536,93.43,114.72,
552,93.54,114.39,
568,93.76,113.71,
584,93.87,113.37,
599,94.1,112.7,
615,94.21,112.36,
631,94.44,111.69,
647,94.66,111.01,
663,94.77,110.68,
678,95,110,
694,95.22,109.33,
710,95.45,108.65,
726,95.68,107.97,
741,95.9,107.3,
757,96.12,106.62,
773,96.24,106.29,
789,96.46,105.61,
804,96.57,105.28,
820,96.69,104.94,
836,96.91,104.26,
852,97.02,103.92,
868,97.25,103.25,
883,97.47,102.58,
899,97.7,101.9,
915,97.81,101.56,
931,98.04,100.89,
946,98.15,100.55,
962,98.37,99.87,
978,98.6,99.2,
994,98.82,98.53,
1009,98.94,98.19,
1025,99.16,97.51,
1041,99.27,97.17,
1057,99.5,96.5,
1072,99.72,95.83,
1088,99.95,95.15,
1104,100.17,94.48,
1120,100.29,94.14,
1136,100.51,93.46,
1151,100.62,93.12,
1167,100.85,92.45,
1183,100.96,92.11,
1199,101.19,91.44,
1214,101.41,90.76,
1230,101.52,90.42,
1246,101.75,89.75,
1262,101.97,89.08,
1277,102.09,88.74,
1293,102.2,88.4,
1309,102.42,87.73,
1325,102.65,87.05,
1341,102.87,86.37,
1356,103.1,85.7,
1372,103.32,85.03,
1388,103.44,84.69,
1404,103.55,84.35,
1419,103.77,83.67,
1435,104,83,
1451,104.22,82.33,
1467,104.34,81.99,
1482,104.56,81.31,
1498,104.67,80.98,
1514,104.9,80.3,
1530,105.12,79.62,
1545,105.24,79.29,
1561,105.35,78.95,
1577,105.57,78.28,
1593,105.8,77.6,
1609,106.02,76.92,
1624,106.14,76.59,
1640,106.36,75.91,
1656,106.47,75.58,
1672,106.7,74.9,
1687,106.92,74.23,
1703,107.04,73.89,
1719,107.26,73.21,
1735,107.37,72.87,
1750,107.6,72.2,
1766,107.82,71.53,
1782,107.94,71.19,
1798,108.05,70.85,
1813,108.27,70.18,
1829,108.39,69.84,
1845,108.61,69.16,
1861,108.84,68.49,
1877,108.95,68.15,
1892,109.17,67.48,
1908,109.29,67.14,
1924,109.51,66.46,
1940,109.74,65.79,
1955,109.85,65.45,
1971,110.07,64.78,
1987,110.19,64.44,
2003,110.41,63.76,
2018,110.64,63.09,
2034,110.86,62.41,
2050,111.09,61.74,
2066,111.2,61.4,
2082,111.42,60.73,
2097,111.54,60.39,
2113,111.76,59.71,
2129,111.99,59.04,
2145,112.1,58.7,
2160,112.32,58.03,
2176,112.44,57.69,
2192,112.55,57.35,
2208,112.77,56.67,
2223,113,56,
2239,113.11,55.66,
2255,113.34,54.99,
2271,113.45,54.65,
2286,113.67,53.98,
2302,113.79,53.64,
2318,114.01,52.96,
2334,114.24,52.29,
2350,114.35,51.95,
2365,114.57,51.28,
2381,114.69,50.94,
2397,114.8,50.6,
2413,115.02,49.92,
2428,115.25,49.25,
2444,115.36,48.91,
2460,115.59,48.24,
2476,115.81,47.56,
2491,115.92,47.23,
2507,116.15,46.55,
2523,116.26,46.21,
2539,116.49,45.54,
2555,116.71,44.86,
2570,116.82,44.53,
2586,116.94,44.19,
2602,117.16,43.51,
2618,117.39,42.84,
2633,117.5,42.5,
2649,117.61,42.16,
2665,117.84,41.49,
2681,117.95,41.15,
2696,118.17,40.48,
2712,118.29,40.14,
2728,118.51,39.46,
2744,118.62,39.13,
2759,118.85,38.45,
2775,119.07,37.78,
2791,119.19,37.44,
2807,119.41,36.76,
2823,119.52,36.43,
2838,119.75,35.75,
2854,119.86,35.41,
2870,120.09,34.74,
2886,120.2,34.4,
2901,120.42,33.73,
2917,120.54,33.39,
2933,120.65,33.05,
2949,120.87,32.38,
2964,121.1,31.7,
2980,121.21,31.36,
2996,121.44,30.69,
3012,121.55,30.35,
3027,121.66,30.01,
3043,121.89,29.34,
3059,122,29,
3075,122.22,28.33,
3091,122.34,27.99,
3106,122.45,27.65,
3122,122.67,26.98,
3138,122.79,26.64,
3154,123.01,25.96,
3169,123.12,25.62,
3185,123.35,24.95,
3201,123.46,24.61,
3217,123.69,23.94,
3232,123.8,23.6,
3248,124.02,22.93,
3264,124.14,22.59,
3280,124.36,21.91,
3296,124.47,21.58,
3311,124.59,21.24,
3327,124.81,20.56,
3343,124.92,20.23,
3359,125.15,19.55,
3374,125.26,19.21,
3390,125.49,18.54,
3406,125.6,18.2,
3422,125.82,17.53,
3437,125.94,17.19,
3453,126.05,16.85,
3469,126.27,16.18,
3485,126.39,15.84,
3500,126.61,15.16,
3516,126.72,14.83,
3532,126.84,14.49,
3548,126.95,14.15,
3564,127.17,13.48,
3579,127.4,12.8,
3595,127.62,12.13,
3611,127.74,11.79,
3627,127.85,11.45,
3642,127.96,11.11,
3658,128.19,10.58,
3674,128.3,10.38,
3690,128.52,9.82,
3705,128.64,9.59,
3721,128.75,9.35,
3737,128.98,8.75,
3753,129.09,8.49,
3768,129.09,8.56,
3784,129.31,7.94,
3800,129.42,7.65,
3816,129.54,7.35,
3832,129.65,7.04,
3847,129.76,6.72,
3863,129.88,6.39,
3879,130.1,5.71,
3895,130.21,5.35,
3910,130.21,5.34,
3926,130.33,4.97,
3942,130.44,4.6,
3958,130.55,4.22,
3973,130.66,3.83,
3989,130.77,3.43,
4005,130.89,3.03,
4021,130.89,2.96,
4037,131,2.54,
4052,131.11,2.11,
4068,131.23,1.68,
4084,131.23,1.58,
4100,131.34,1.14,
4115,131.45,0.69,
4131,131.45,0.57,
4147,131.56,0.11,
4163,131.67,-0.36,
4178,131.67,-0.49,
4194,131.67,-0.62,
4210,131.79,-1.1,
4226,131.79,-1.24,
4241,131.79,-1.38,
4257,131.9,-1.87,
4273,131.9,-2.02,
4289,131.9,-2.17,
4305,132.01,-2.5,
4320,132.01,-2.5,
4336,132.01,-2.5,
4352,132.01,-2.5,
4368,132.13,-2.84,
4383,132.13,-2.84,
4399,132.13,-2.84,
4415,132.13,-2.84,
4431,132.13,-2.84,
4446,132.13,-2.84,
4462,132.13,-2.84,
4478,132.13,-2.84,
4494,132.13,-2.84,
4509,132.13,-2.84,
4525,132.13,-2.84,
4541,132.13,-2.84,
4557,132.13,-2.84,
4573,132.13,-2.84,
4588,132.01,-2.5,
4604,132.01,-2.5,
4620,132.01,-2.5,
4636,131.9,-2.32,
4651,131.9,-2.47,
4667,131.79,-2.27,
4683,131.79,-2.41,
4699,131.79,-2.55,
4714,131.67,-2.35,
4730,131.56,-2.13,
4746,131.56,-2.26,
4762,131.56,-2.38,
4778,131.45,-2.16,
4793,131.45,-2.27,
4809,131.34,-2.04,
4825,131.34,-2.14,
4841,131.23,-1.9,
4856,131.11,-1.65,
4872,131.11,-1.74,
4888,131.11,-1.83,
4904,131,-1.57,
4919,131,-1.65,
4935,130.89,-1.38,
4951,130.89,-1.45,
4967,130.77,-1.17,
4982,130.77,-1.23,
4998,130.66,-0.95,
5014,130.66,-1,
5030,130.55,-0.71,
5046,130.55,-0.75,
5061,130.44,-0.45,
5077,130.44,-0.48,
5093,130.33,-0.17,
5109,130.33,-0.2,
5124,130.21,0.12,
5140,130.21,0.11,
5156,130.1,0.44,
5172,130.1,0.43,
5187,129.99,0.77,
5203,129.99,0.77,
5219,129.88,1.12,
5235,129.88,1.13,
5250,129.76,1.48,
5266,129.76,1.5,
5282,129.76,1.52,
5298,129.65,1.88,
5314,129.65,1.91,
5329,129.65,1.94,
5345,129.65,1.97,
5361,129.54,2.34,
5377,129.54,2.38,
5392,129.54,2.41,
5408,129.54,2.45,
5424,129.54,2.49,
5440,129.42,2.87,
5455,129.42,2.92,
5471,129.42,2.96,
5487,129.42,3.01,
5503,129.42,3.05,
5519,129.42,3.1,
5534,129.42,3.14,
5550,129.42,3.19,
5566,129.42,3.23,
5582,129.31,3.62,
5597,129.31,3.68,
5613,129.31,3.73,
5629,129.31,3.79,
5645,129.31,3.84,
5660,129.31,3.9,
5676,129.2,4.3,
5692,129.2,4.36,
5708,129.2,4.42,
5723,129.2,4.49,
5739,129.2,4.55,
5755,129.2,4.61,
5771,129.2,4.67,
5787,129.2,4.74,
5802,129.09,5.15,
5818,129.09,5.22,
5834,129.09,5.29,
5850,129.09,5.36,
5865,129.09,5.43,
5881,129.09,5.51,
5897,129.09,5.58,
5913,129.09,5.65,
5928,129.2,5.38,
5944,129.09,5.79,
5960,129.2,5.51,
5976,129.09,5.92,
5991,129.09,5.99,
6007,129.2,5.72,
6023,129.2,5.78,
6039,129.09,6.19,
6055,129.09,6.26,
6070,129.2,5.99,
6086,129.2,6.05,
6102,129.2,6.11,
6118,129.2,6.18,
6133,129.2,6.24,
6149,129.2,6.3,
6165,129.31,6.02,
6181,129.31,6.07,
6196,129.31,6.13,
6212,129.31,6.18,
6228,129.31,6.24,
6244,129.31,6.29,
6259,129.42,6,
6275,129.42,6.04,
6291,129.42,6.09,
6307,129.42,6.13,
6323,129.42,6.18,
6338,129.42,6.23,
6354,129.42,6.27,
6370,129.42,6.32,
6386,129.42,6.36,
6401,129.54,6.06,
6417,129.54,6.1,
6433,129.54,6.13,
6449,129.65,5.82,
6464,129.65,5.85,
6480,129.65,5.88,
6496,129.65,5.91,
6512,129.65,5.93,
6527,129.76,5.61,
6543,129.76,5.63,
6559,129.76,5.65,
6575,129.76,5.67,
6591,129.88,5.34,
6606,129.88,5.35,
6622,129.88,5.36,
6638,129.88,5.37,
6654,129.88,5.38,
6669,129.99,5.05,
6685,129.99,5.05,
6701,129.99,5.05,
6717,129.99,5.05,
6732,129.99,5.05,
6748,130.1,4.7,
6764,130.1,4.7,
6780,130.1,4.69,
6795,130.1,4.68,
6811,130.21,4.33,
6827,130.21,4.31,
6843,130.21,4.29,
6859,130.33,3.93,
6874,130.33,3.9,
6890,130.33,3.88,
6906,130.33,3.85,
6922,130.33,3.83,
6937,130.33,3.8,
6953,130.33,3.78,
6969,130.44,3.4,
6985,130.44,3.37,
7000,130.44,3.34,
7016,130.44,3.3,
7032,130.44,3.27,
7048,130.44,3.23,
7064,130.44,3.2,
7079,130.55,2.82,
7095,130.55,2.77,
7111,130.55,2.73,
7127,130.55,2.69,
7142,130.55,2.64,
7158,130.55,2.6,
7174,130.66,2.21,
7190,130.66,2.16,
7205,130.55,2.45,
7221,130.66,2.06,
7237,130.66,2.01,
7253,130.55,2.3,
7268,130.55,2.26,
7284,130.55,2.22,
7300,130.55,2.17,
7316,130.55,2.13,
7332,130.55,2.09,
7347,130.55,2.04,
7363,130.55,2,
7379,130.55,1.96,
7395,130.55,1.91,
7410,130.55,1.87,
7426,130.55,1.83,
7442,130.55,1.78,
7458,130.44,2.09,
7473,130.44,2.05,
7489,130.44,2.02,
7505,130.44,1.98,
7521,130.44,1.95,
7536,130.44,1.91,
7552,130.44,1.88,
7568,130.44,1.85,
7584,130.44,1.81,
7600,130.44,1.78,
7615,130.33,2.09,
7631,130.33,2.06,
7647,130.33,2.04,
7663,130.33,2.01,
7678,130.21,2.33,
7694,130.21,2.32,
7710,130.21,2.3,
7726,130.21,2.28,
7741,130.1,2.61,
7757,130.1,2.6,
7773,130.1,2.6,
7789,130.1,2.59,
7804,130.1,2.58,
7820,130.1,2.57,
7836,130.1,2.56,
7852,130.1,2.56,
7868,129.99,2.9,
7883,129.99,2.9,
7899,129.99,2.9,
7915,129.88,3.24,
7931,129.88,3.25,
7946,129.88,3.26,
7962,129.88,3.27,
7978,129.88,3.28,
7994,129.88,3.29,
8009,129.88,3.3,
8025,129.88,3.31,
8041,129.76,3.67,
8057,129.76,3.69,
8072,129.76,3.71,
8088,129.76,3.73,
8104,129.76,3.74,
8120,129.76,3.76,
8136,129.76,3.78,
8151,129.76,3.8,
8167,129.76,3.82,
8183,129.76,3.84,
8199,129.76,3.86,
8214,129.76,3.88,
8230,129.76,3.89,
8246,129.76,3.91,
8262,129.76,3.93,
8277,129.65,4.3,
8293,129.65,4.32,
8309,129.65,4.35,
8325,129.65,4.38,
8340,129.65,4.41,
8356,129.65,4.43,
8372,129.65,4.46,
8388,129.65,4.49,
8404,129.65,4.52,
8419,129.65,4.55,
8435,129.65,4.57,
8451,129.65,4.6,
8467,129.65,4.63,
8482,129.65,4.66,
8498,129.65,4.68,
8514,129.65,4.71,
8530,129.65,4.74,
8545,129.65,4.77,
8561,129.65,4.79,
8577,129.65,4.82,
8593,129.76,4.5,
8608,129.65,4.87,
8624,129.65,4.9,
8640,129.65,4.92,
8656,129.76,4.6,
8672,129.76,4.62,
8687,129.76,4.64,
8703,129.76,4.66,
8719,129.76,4.68,
8735,129.76,4.7,
8750,129.76,4.72,
8766,129.88,4.39,
8782,129.88,4.4,
8798,129.88,4.41,
8813,129.88,4.42,
8829,129.88,4.43,
8845,129.88,4.44,
8861,129.88,4.45,
8877,129.88,4.46,
8892,129.88,4.47,
8908,129.99,4.13,
8924,129.88,4.48,
8940,129.99,4.14,
8955,129.99,4.14,
8971,129.99,4.14,
8987,129.99,4.14,
9003,129.99,4.15,
9018,129.99,4.15,
9034,130.1,3.8,
9050,130.1,3.79,
9066,130.1,3.79,
9081,130.1,3.78,
9097,130.1,3.77,
9113,130.1,3.76,
9129,130.1,3.75,
9145,130.1,3.75,
9160,130.1,3.74,
9176,130.1,3.73,
9192,130.1,3.72,
9208,130.1,3.71,
9223,130.1,3.71,
9239,130.1,3.7,
9255,130.1,3.69,
9271,130.1,3.68,
9286,130.1,3.68,
9302,130.1,3.67,
9318,130.1,3.66,
9334,130.1,3.65,
9349,130.1,3.64,
9365,130.21,3.29,
9381,130.1,3.62,
9397,130.21,3.26,
9413,130.21,3.25,
9428,130.21,3.23,
9444,130.21,3.21,
9460,130.1,3.54,
9476,130.21,3.19,
9491,130.21,3.17,
9507,130.21,3.16,
9523,130.21,3.14,
9539,130.21,3.12,
9554,130.21,3.11,
9570,130.21,3.09,
9586,130.21,3.07,
9602,130.21,3.06,
9617,130.21,3.04,
9633,130.21,3.02,
9649,130.21,3.01,
9665,130.21,2.99,
9681,130.21,2.97,
9696,130.21,2.96,
9712,130.21,2.94,
9728,130.21,2.92,
9744,130.21,2.91,
9759,130.21,2.89,
9775,130.21,2.87,
9791,130.21,2.85,
9807,130.21,2.84,
9822,130.21,2.82,
9838,130.21,2.8,
9854,130.21,2.79,
9870,130.1,3.12,
9885,130.1,3.11,
9901,130.1,3.1,
9917,130.1,3.09,
9933,130.21,2.74,
9949,130.1,3.07,
9964,130.1,3.06,
9980,130.1,3.05,
9996,130.1,3.05,
10012,130.1,3.04,
10027,130.1,3.03,
10043,130.1,3.02,
10059,130.1,3.01,
10075,130.1,3.01,
10090,130.1,3,
10106,130.1,2.99,
10122,129.99,3.33,
10138,129.99,3.33,
10153,129.99,3.33,
10169,129.99,3.33,
10185,129.99,3.33,
10201,129.99,3.33,
10217,129.99,3.33,
10232,129.88,3.68,
10248,129.99,3.35,
10264,129.99,3.35,
10280,129.99,3.35,
10295,129.99,3.35,
10311,129.99,3.35,
10327,129.88,3.7,
10343,129.99,3.36,
10358,129.99,3.36,
10374,129.99,3.36,
10390,129.99,3.36,
10406,129.99,3.36,
10422,129.88,3.71,
10437,129.88,3.72,
10453,129.88,3.73,
10469,129.88,3.74,
10485,129.88,3.75,
10500,129.88,3.76,
10516,129.99,3.42,
10532,129.88,3.77,
10548,129.88,3.78,
10563,129.88,3.79,
10579,129.88,3.8,
10595,129.88,3.81,
10611,129.88,3.82,
10626,129.88,3.83,
10642,129.88,3.84,
10658,129.88,3.85,
10674,129.88,3.86,
10690,129.99,3.52,
10705,129.88,3.87,
10721,129.88,3.88,
10737,129.88,3.89,
10753,129.88,3.9,
10768,129.88,3.91,
10784,129.88,3.92,
10800,129.88,3.93,
10816,129.88,3.94,
10831,129.88,3.95,
10847,129.88,3.96,
10863,129.88,3.97,
10879,129.88,3.98,
10894,129.88,3.99,
10910,129.88,4,
10926,129.88,4.01,
10942,129.88,4.02,
10958,129.88,4.03,
10973,129.88,4.04,
10989,129.88,4.05,
11005,129.88,4.06,
11021,129.88,4.07,
11036,129.88,4.08,
11052,129.88,4.09,
11068,129.99,3.75,
11084,129.88,4.1,
11099,129.88,4.11,
11115,129.88,4.12,
11131,129.88,4.13,
11147,129.88,4.14,
11162,129.88,4.15,
11178,129.88,4.16,
11194,129.88,4.17,
11210,129.88,4.18,
11226,129.88,4.19,
11241,129.88,4.2,
11257,129.88,4.21,
11273,129.88,4.22,
11289,129.99,3.88,
11304,129.99,3.88,
11320,129.99,3.88,
11336,129.99,3.88,
11352,129.99,3.88,
11367,129.99,3.89,
11383,129.99,3.89,
11399,129.99,3.89,
11415,129.99,3.89,
11430,129.99,3.89,
11446,129.99,3.89,
11462,129.99,3.89,
11478,129.99,3.89,
11494,129.99,3.89,
11509,129.99,3.89,
11525,129.99,3.9,
11541,129.99,3.9,
11557,129.99,3.9,
11572,130.1,3.55,
11588,129.99,3.89,
11604,130.1,3.55,
11620,129.99,3.88,
11635,129.99,3.88,
11651,129.99,3.89,
11667,129.99,3.89,
11683,129.99,3.89,
11698,129.99,3.89,
11714,129.99,3.89,
11730,129.99,3.89,
11746,130.1,3.55,
11762,130.1,3.54,
11777,130.1,3.53,
11793,130.1,3.52,
11809,129.99,3.86,
11825,130.1,3.51,
11840,130.1,3.51,
11856,130.1,3.5,
11872,130.1,3.49,
11888,130.1,3.48,
11903,130.1,3.48,
11919,130.1,3.47,
11935,130.1,3.46,
11951,130.1,3.45,
11967,130.1,3.44,
11982,130.1,3.44,
11998,130.1,3.43,
12014,130.1,3.42,
12030,130.1,3.41,
12045,130.1,3.4,
12061,130.1,3.4,
12077,130.1,3.39,
12093,130.1,3.38,
12108,130.1,3.37,
12124,130.1,3.36,
12140,130.1,3.36,
12156,130.1,3.35,
12171,130.1,3.34,
12187,130.1,3.33,
12203,130.1,3.33,
12219,130.1,3.32,
12235,130.1,3.31,
12250,130.1,3.3,
12266,130.1,3.29,
12282,130.1,3.29,
12298,130.1,3.28,
12313,130.1,3.27,
12329,130.1,3.26,
12345,130.1,3.25,
12361,129.99,3.59,
12376,129.99,3.59,
12392,129.99,3.59,
12408,129.99,3.6,
12424,129.99,3.6,
12439,129.99,3.6,
12455,129.99,3.6,
12471,129.99,3.6,
12487,129.99,3.6,
12503,129.88,3.95,
12518,129.99,3.61,
12534,129.99,3.61,
12550,129.88,3.96,
12566,129.88,3.97,
12581,129.88,3.98,
12597,129.88,3.99,
12613,129.88,4,
12629,129.88,4.01,
12644,129.88,4.02,
12660,129.88,4.03,
12676,129.88,4.04,
12692,129.88,4.05,
12707,129.88,4.06,
12723,129.88,4.07,
12739,129.88,4.08,
12755,129.88,4.09,
12771,129.88,4.1,
12786,129.88,4.11,
12802,129.88,4.12,
12818,129.88,4.13,
12834,129.88,4.14,
12849,129.88,4.15,
12865,129.88,4.16,
12881,129.88,4.17,
12897,129.88,4.18,
12912,129.88,4.19,
12928,129.88,4.2,
12944,129.88,4.21,
12960,129.88,4.22,
12975,129.88,4.23,
12991,129.88,4.24,
13007,129.88,4.25,
13023,129.88,4.26,
13039,129.88,4.27,
13054,129.88,4.28,
13070,129.88,4.29,
13086,129.88,4.29,
13102,129.88,4.3,
13117,129.88,4.31,
13133,129.88,4.32,
13149,129.88,4.33,
13165,129.88,4.34,
13180,129.88,4.35,
13196,129.88,4.36,
13212,129.88,4.37,
13228,129.88,4.38,
13243,129.99,4.05,
13259,129.88,4.39,
13275,129.99,4.06,
13291,129.99,4.06,
13307,129.99,4.06,
13322,129.99,4.06,
13338,129.99,4.06,
13354,129.99,4.06,
13370,129.99,4.06,
13385,129.99,4.06,
13401,129.88,4.41,
13417,129.99,4.08,
13433,129.99,4.08,
13448,129.99,4.08,
13464,129.99,4.08,
13480,129.99,4.08,
13496,129.99,4.08,
13512,129.99,4.08,
13527,129.99,4.08,
13543,129.99,4.08,
13559,129.99,4.08,
13575,129.99,4.09,
13590,129.99,4.09,
13606,129.99,4.09,
13622,129.99,4.09,
13638,129.99,4.09,
13653,129.99,4.09,
13669,129.99,4.09,
13685,129.99,4.09,
13701,129.99,4.09,
13716,129.99,4.09,
13732,129.99,4.1,
13748,129.99,4.1,
13764,129.99,4.1,
13780,129.99,4.1,
13795,129.99,4.1,
13811,129.99,4.1,
13827,129.99,4.1,
13843,129.99,4.1,
13858,129.99,4.1,
13874,129.99,4.1,
13890,130.1,3.76,
13906,130.1,3.75,
13921,130.1,3.74,
13937,130.1,3.74,
13953,129.99,4.07,
13969,129.99,4.07,
13984,130.1,3.73,
14000,130.1,3.72,
14016,130.1,3.71,
14032,130.1,3.71,
14048,130.1,3.7,
14063,130.1,3.69,
14079,130.1,3.68,
14095,130.1,3.67,
14111,130.1,3.67,
14126,130.1,3.66,
14142,130.1,3.65,
14158,129.99,3.99,
14174,130.1,3.64,
14189,130.1,3.64,
14205,130.1,3.63,
14221,130.1,3.62,
14237,130.1,3.61,
14252,130.1,3.6,
14268,130.1,3.6,
14284,130.1,3.59,
14300,130.1,3.58,
14316,130.1,3.57,
14331,130.1,3.56,
14347,130.1,3.56,
14363,130.1,3.55,
14379,130.1,3.54,
14394,130.1,3.53,
14410,130.1,3.53,
14426,130.1,3.52,
14442,130.1,3.51,
14457,130.1,3.5,
14473,130.1,3.49,
14489,130.1,3.49,
14505,130.1,3.48,
14520,130.1,3.47,
14536,130.1,3.46,
14552,130.1,3.45,
14568,130.1,3.45,
14584,130.1,3.44,
14599,130.1,3.43,
14615,130.1,3.42,
14631,130.1,3.42,
14647,130.1,3.41,
14662,129.99,3.75,
14678,130.1,3.4,
14694,129.99,3.74,
14710,130.1,3.39,
14725,130.1,3.39,
14741,130.1,3.38,
14757,130.1,3.37,
14773,130.1,3.36,
14788,130.1,3.35,
14804,130.1,3.35,
14820,130.1,3.34,
14836,130.1,3.33,
14852,130.1,3.32,
14867,130.1,3.31,
14883,130.1,3.31,
14899,130.1,3.3,
14915,130.1,3.29,
14930,130.1,3.28,
14946,130.1,3.28,
14962,130.1,3.27,
14978,129.99,3.61,
14993,129.99,3.61,
15009,129.99,3.61,
15025,129.99,3.61,
15041,129.99,3.61,
15057,129.99,3.61,
15072,129.99,3.61,
15088,129.99,3.61,
15104,129.99,3.61,
15120,129.99,3.61,
15135,129.99,3.62,
15151,129.99,3.62,
15167,129.99,3.62,
15183,129.99,3.62,
15198,129.99,3.62,
15214,129.99,3.62,
15230,129.99,3.62,
15246,129.99,3.62,
15261,129.99,3.62,
15277,129.99,3.62,
15293,129.99,3.63,
15309,129.99,3.63,
15325,129.88,3.97,
15340,129.99,3.64,
15356,129.99,3.64,
15372,129.99,3.64,
15388,129.99,3.64,
15403,129.88,3.99,
15419,129.88,4,
15435,129.99,3.66,
15451,129.99,3.66,
15466,129.88,4.01,
15482,129.99,3.67,
15498,129.88,4.02,
15514,129.88,4.03,
15529,129.88,4.04,
15545,129.99,3.7,
15561,129.99,3.7,
15577,129.99,3.71,
15593,129.99,3.71,
15608,129.99,3.71,
15624,129.88,4.05,
15640,129.99,3.72,
15656,129.99,3.72,
15671,129.99,3.72,
15687,129.99,3.72,
15703,129.99,3.72,
15719,129.99,3.72,
15734,129.99,3.72,
15750,129.99,3.73,
15766,129.99,3.73,
15782,129.99,3.73,
15797,129.99,3.73,
15813,129.99,3.73,
15829,129.99,3.73,
15845,129.99,3.73,
15861,129.99,3.73,
15876,129.99,3.73,
15892,129.99,3.73,
15908,129.99,3.73,
15924,129.99,3.74,
15939,129.99,3.74,
15955,129.99,3.74,
15971,129.99,3.74,
15987,129.99,3.74,
16002,129.99,3.74,
16018,129.88,4.09,
16034,129.88,4.1,
16050,129.99,3.76,
16065,129.99,3.76,
16081,129.99,3.76,
16097,129.99,3.76,
16113,129.99,3.77,
16129,129.99,3.77,
16144,129.88,4.11,
16160,129.99,3.78,
16176,129.99,3.78,
16192,129.99,3.78,
16207,129.99,3.78,
16223,129.99,3.78,
16239,129.99,3.78,
16255,129.99,3.78,
16270,129.99,3.78,
16286,129.99,3.79,
16302,129.99,3.79,
16318,129.99,3.79,
16334,129.99,3.79,
16349,129.99,3.79,
16365,129.99,3.79,
16381,129.99,3.79,
16397,129.99,3.79,
16412,129.99,3.79,
16428,129.99,3.79,
16444,129.99,3.8,
16460,129.99,3.8,
16475,129.99,3.8,
16491,129.99,3.8,
16507,129.99,3.8,
16523,129.99,3.8,
16538,129.99,3.8,
16554,129.99,3.8,
16570,129.99,3.8,
16586,129.99,3.8,
16602,129.99,3.8,
16617,129.99,3.81,
16633,130.1,3.46,
16649,129.99,3.8,
16665,129.99,3.8,
16680,129.99,3.8,
16696,129.99,3.8,
16712,130.1,3.46,
16728,130.1,3.45,
16743,130.1,3.44,
16759,130.1,3.43,
16775,130.1,3.42,
16791,130.1,3.42,
16806,130.1,3.41,
16822,130.1,3.4,
16838,129.99,3.74,
16854,129.99,3.74,
16870,129.99,3.74,
16885,129.99,3.74,
16901,129.99,3.74,
16917,130.1,3.4,
16933,130.1,3.39,
16948,130.1,3.38,
16964,130.1,3.37,
16980,130.1,3.37,
16996,130.1,3.36,
17011,130.1,3.35,
17027,129.99,3.69,
17043,129.99,3.69,
17059,129.99,3.69,
17074,129.99,3.69,
17090,129.99,3.69,
17106,130.1,3.35,
